dataset_name,window_id,record_id,subject_id,session_id,session_name,signal_channel,window_start_ts_utc,window_end_ts_utc,window_seconds,expected_sample_count,sample_count,window_coverage_ratio,missing_value_ratio,flatline_ratio,window_mean,window_std,window_min,window_max,window_iqr,window_mad,window_range
mitdb,1_0,1,100,0,,mlii,1970-01-01 00:00:00+00:00,1970-01-01 00:00:30+00:00,30,10800,10800,1.0,0.0,0.1629780535234744,-0.3353662037037037,0.17370482360466413,-0.68,1.05,0.09500000000000003,0.04500000000000004,1.73
mitdb,1_1,1,100,0,,mlii,1970-01-01 00:00:30+00:00,1970-01-01 00:01:00+00:00,30,10800,10800,1.0,0.0,0.16288545235669968,-0.3373296296296296,0.1775165872941545,-0.695,1.05,0.11499999999999999,0.05499999999999999,1.745
mitdb,1_2,1,100,0,,mlii,1970-01-01 00:01:00+00:00,1970-01-01 00:01:30+00:00,30,10800,10800,1.0,0.0,0.16658949902768774,-0.308387962962963,0.17505794800377122,-0.67,1.12,0.09499999999999997,0.04999999999999999,1.79
mitdb,1_3,1,100,0,,mlii,1970-01-01 00:01:30+00:00,1970-01-01 00:02:00+00:00,30,10800,10800,1.0,0.0,0.16427446985832023,-0.32506157407407404,0.1772343202220834,-0.65,1.125,0.09500000000000003,0.04999999999999999,1.775
mitdb,1_4,1,100,0,,mlii,1970-01-01 00:02:00+00:00,1970-01-01 00:02:30+00:00,30,10800,10800,1.0,0.0,0.16075562552088157,-0.3365814814814815,0.17192442792445,-0.675,0.98,0.09999999999999998,0.04999999999999999,1.655
mitdb,1_5,1,100,0,,mlii,1970-01-01 00:02:30+00:00,1970-01-01 00:03:00+00:00,30,10800,10800,1.0,0.0,0.1629780535234744,-0.30151666666666666,0.17118391153299958,-0.655,1.015,0.09499999999999997,0.044999999999999984,1.67
mitdb,1_6,1,100,0,,mlii,1970-01-01 00:03:00+00:00,1970-01-01 00:03:30+00:00,30,10800,10800,1.0,0.0,0.1691823316973794,-0.3161648148148148,0.1705998135463167,-0.65,1.08,0.09500000000000003,0.04500000000000004,1.73
mitdb,1_7,1,100,0,,mlii,1970-01-01 00:03:30+00:00,1970-01-01 00:04:00+00:00,30,10800,10800,1.0,0.0,0.16881192703028058,-0.36050648148148146,0.1742009204771658,-0.695,0.965,0.10499999999999998,0.04999999999999999,1.66
mitdb,1_8,1,100,0,,mlii,1970-01-01 00:04:00+00:00,1970-01-01 00:04:30+00:00,30,10800,10800,1.0,0.0,0.1632558570237985,-0.28175185185185186,0.17757520261785642,-0.655,1.245,0.11499999999999999,0.06,1.9000000000000001
mitdb,1_9,1,100,0,,mlii,1970-01-01 00:04:30+00:00,1970-01-01 00:05:00+00:00,30,10800,10800,1.0,0.0,0.16427446985832023,-0.3075875,0.17404838092584388,-0.64,1.205,0.10499999999999998,0.04999999999999999,1.8450000000000002
mitdb,1_10,1,100,0,,mlii,1970-01-01 00:05:00+00:00,1970-01-01 00:05:30+00:00,30,10800,10800,1.0,0.0,0.1511251041763126,-0.28361157407407406,0.1762620822953221,-0.62,1.3,0.10499999999999998,0.04999999999999999,1.92
mitdb,1_11,1,100,0,,mlii,1970-01-01 00:05:30+00:00,1970-01-01 00:06:00+00:00,30,10800,10800,1.0,0.0,0.15853319751828873,-0.3222365740740741,0.17486021577256455,-0.775,0.995,0.11000000000000004,0.05500000000000005,1.77
mitdb,1_12,1,100,0,,mlii,1970-01-01 00:06:00+00:00,1970-01-01 00:06:30+00:00,30,10800,10800,1.0,0.0,0.15881100101861284,-0.30112824074074074,0.1806130374626093,-0.635,1.155,0.125,0.06,1.79
mitdb,1_13,1,100,0,,mlii,1970-01-01 00:06:30+00:00,1970-01-01 00:07:00+00:00,30,10800,10800,1.0,0.0,0.1622372441892768,-0.2960375,0.1808793380158645,-0.64,1.025,0.13,0.065,1.665
mitdb,1_14,1,100,0,,mlii,1970-01-01 00:07:00+00:00,1970-01-01 00:07:30+00:00,30,10800,10800,1.0,0.0,0.15510695434762478,-0.3244777777777778,0.189705069017936,-0.65,1.09,0.12000000000000005,0.06,1.7400000000000002
mitdb,1_15,1,100,0,,mlii,1970-01-01 00:07:30+00:00,1970-01-01 00:08:00+00:00,30,10800,10800,1.0,0.0,0.1576071858505417,-0.3228518518518519,0.18134142590084315,-0.675,1.03,0.12000000000000005,0.06,1.705
mitdb,1_16,1,100,0,,mlii,1970-01-01 00:08:00+00:00,1970-01-01 00:08:30+00:00,30,10800,10800,1.0,0.0,0.155662561348273,-0.30690694444444444,0.1861098810159128,-0.645,1.175,0.10999999999999999,0.05499999999999999,1.82
mitdb,1_17,1,100,0,,mlii,1970-01-01 00:08:30+00:00,1970-01-01 00:09:00+00:00,30,10800,10800,1.0,0.0,0.16390406519122142,-0.29566944444444443,0.17675267859724736,-0.67,1.125,0.11499999999999999,0.06,1.795
mitdb,1_18,1,100,0,,mlii,1970-01-01 00:09:00+00:00,1970-01-01 00:09:30+00:00,30,10800,10800,1.0,0.0,0.15177331234373553,-0.3319564814814815,0.19452249192673152,-0.675,1.14,0.13,0.065,1.815
mitdb,1_19,1,100,0,,mlii,1970-01-01 00:09:30+00:00,1970-01-01 00:10:00+00:00,30,10800,10800,1.0,0.0,0.1576071858505417,-0.33344259259259257,0.1731469976772603,-0.69,1.03,0.11499999999999999,0.05499999999999999,1.72
mitdb,1_20,1,100,0,,mlii,1970-01-01 00:10:00+00:00,1970-01-01 00:10:30+00:00,30,10800,10800,1.0,0.0,0.15927400685248636,-0.30667685185185184,0.18109540092663287,-0.65,1.095,0.11499999999999999,0.06,1.745
mitdb,1_21,1,100,0,,mlii,1970-01-01 00:10:30+00:00,1970-01-01 00:11:00+00:00,30,10800,10800,1.0,0.0,0.15445874618020186,-0.3131087962962963,0.1763089754283366,-0.67,1.09,0.10999999999999999,0.05499999999999999,1.7600000000000002
mitdb,1_22,1,100,0,,mlii,1970-01-01 00:11:00+00:00,1970-01-01 00:11:30+00:00,30,10800,10800,1.0,0.0,0.15807019168441522,-0.27640324074074074,0.1924912484223476,-0.615,1.31,0.11499999999999999,0.06,1.925
mitdb,1_23,1,100,0,,mlii,1970-01-01 00:11:30+00:00,1970-01-01 00:12:00+00:00,30,10800,10800,1.0,0.0,0.16094082785443098,-0.3371648148148148,0.18681308388579296,-0.66,1.14,0.11499999999999999,0.06,1.7999999999999998
mitdb,1_24,1,100,0,,mlii,1970-01-01 00:12:00+00:00,1970-01-01 00:12:30+00:00,30,10800,10800,1.0,0.0,0.16529308269284193,-0.29691574074074073,0.1853186210975568,-0.655,1.095,0.11499999999999999,0.06,1.75
mitdb,1_25,1,100,0,,mlii,1970-01-01 00:12:30+00:00,1970-01-01 00:13:00+00:00,30,10800,10800,1.0,0.0,0.16288545235669968,-0.29379305555555557,0.18449175171907295,-0.63,1.23,0.11499999999999999,0.05499999999999999,1.8599999999999999
mitdb,1_26,1,100,0,,mlii,1970-01-01 00:13:00+00:00,1970-01-01 00:13:30+00:00,30,10800,10800,1.0,0.0,0.15945920918603573,-0.2610375,0.20213880908888765,-0.58,1.27,0.11499999999999999,0.05999999999999997,1.85
mitdb,1_27,1,100,0,,mlii,1970-01-01 00:13:30+00:00,1970-01-01 00:14:00+00:00,30,10800,10800,1.0,0.0,0.16621909436058893,-0.2929013888888889,0.19568958184754648,-0.61,1.255,0.125,0.06,1.8649999999999998
mitdb,1_28,1,100,0,,mlii,1970-01-01 00:14:00+00:00,1970-01-01 00:14:30+00:00,30,10800,10800,1.0,0.0,0.1554773590147236,-0.3188953703703704,0.19630745405392205,-0.685,1.195,0.125,0.06000000000000005,1.8800000000000001
mitdb,1_29,1,100,0,,mlii,1970-01-01 00:14:30+00:00,1970-01-01 00:15:00+00:00,30,10800,10800,1.0,0.0,0.1638114640244467,-0.2983328703703704,0.18640646688976656,-0.625,1.225,0.11499999999999999,0.05499999999999999,1.85
mitdb,1_30,1,100,0,,mlii,1970-01-01 00:15:00+00:00,1970-01-01 00:15:30+00:00,30,10800,10800,1.0,0.0,0.16436707102509493,-0.29822916666666666,0.19208203863677098,-0.61,1.22,0.10999999999999999,0.05499999999999999,1.83
mitdb,1_31,1,100,0,,mlii,1970-01-01 00:15:30+00:00,1970-01-01 00:16:00+00:00,30,10800,10800,1.0,0.0,0.15436614501342716,-0.32829305555555555,0.19845277472164186,-0.66,1.25,0.13,0.065,1.9100000000000001
mitdb,1_32,1,100,0,,mlii,1970-01-01 00:16:00+00:00,1970-01-01 00:16:30+00:00,30,10800,10800,1.0,0.0,0.16140383368830447,-0.3285064814814815,0.1927115113306473,-0.675,1.175,0.12,0.06,1.85
mitdb,1_33,1,100,0,,mlii,1970-01-01 00:16:30+00:00,1970-01-01 00:17:00+00:00,30,10800,10800,1.0,0.0,0.15436614501342716,-0.2785574074074074,0.2001451978744154,-0.635,1.305,0.12,0.06,1.94
mitdb,1_34,1,100,0,,mlii,1970-01-01 00:17:00+00:00,1970-01-01 00:17:30+00:00,30,10800,10800,1.0,0.0,0.16047782202055746,-0.2750324074074074,0.1985020854763448,-0.59,1.315,0.11499999999999999,0.06,1.9049999999999998
mitdb,1_35,1,100,0,,mlii,1970-01-01 00:17:30+00:00,1970-01-01 00:18:00+00:00,30,10800,10800,1.0,0.0,0.15732938235021762,-0.30159629629629625,0.20637714293859696,-0.66,1.31,0.12,0.06,1.9700000000000002
mitdb,1_36,1,100,0,,mlii,1970-01-01 00:18:00+00:00,1970-01-01 00:18:30+00:00,30,10800,10800,1.0,0.0,0.16149643485507917,-0.3011875,0.1905915670032901,-0.655,1.165,0.10999999999999999,0.05499999999999999,1.82
mitdb,1_37,1,100,0,,mlii,1970-01-01 00:18:30+00:00,1970-01-01 00:19:00+00:00,30,10800,10800,1.0,0.0,0.16195944068895268,-0.29764398148148147,0.1989461135083601,-0.67,1.205,0.125,0.065,1.875
mitdb,1_38,1,100,0,,mlii,1970-01-01 00:19:00+00:00,1970-01-01 00:19:30+00:00,30,10800,10800,1.0,0.0,0.15899620335216225,-0.2937,0.20340642406124748,-0.66,1.305,0.11499999999999999,0.06,1.9649999999999999
mitdb,1_39,1,100,0,,mlii,1970-01-01 00:19:30+00:00,1970-01-01 00:20:00+00:00,30,10800,10800,1.0,0.0,0.1644596721918696,-0.2925064814814815,0.1924444687627937,-0.63,1.24,0.10999999999999999,0.05499999999999999,1.87
mitdb,1_40,1,100,0,,mlii,1970-01-01 00:20:00+00:00,1970-01-01 00:20:30+00:00,30,10800,10800,1.0,0.0,0.1645522733586443,-0.2960291666666666,0.1979829147714334,-0.64,1.3,0.10999999999999999,0.05499999999999999,1.94
mitdb,1_41,1,100,0,,mlii,1970-01-01 00:20:30+00:00,1970-01-01 00:21:00+00:00,30,10800,10800,1.0,0.0,0.15890360218538754,-0.27291712962962966,0.2023390906051229,-0.605,1.435,0.11499999999999999,0.05499999999999999,2.04
mitdb,1_42,1,100,0,,mlii,1970-01-01 00:21:00+00:00,1970-01-01 00:21:30+00:00,30,10800,10800,1.0,0.0,0.1623298453560515,-0.2704944444444445,0.20104386804863733,-0.63,1.325,0.11499999999999999,0.05499999999999999,1.955
mitdb,1_43,1,100,0,,mlii,1970-01-01 00:21:30+00:00,1970-01-01 00:22:00+00:00,30,10800,10800,1.0,0.0,0.1554773590147236,-0.29078657407407404,0.1944327807198894,-0.64,1.325,0.12,0.06,1.9649999999999999
mitdb,1_44,1,100,0,,mlii,1970-01-01 00:22:00+00:00,1970-01-01 00:22:30+00:00,30,10800,10800,1.0,0.0,0.15899620335216225,-0.31370462962962964,0.20331546254478233,-0.64,1.37,0.12,0.06,2.0100000000000002
mitdb,1_45,1,100,0,,mlii,1970-01-01 00:22:30+00:00,1970-01-01 00:23:00+00:00,30,10800,10800,1.0,0.0,0.1624224465228262,-0.32358472222222223,0.19486753949255078,-0.715,1.2,0.10500000000000004,0.05499999999999999,1.915
mitdb,1_46,1,100,0,,mlii,1970-01-01 00:23:00+00:00,1970-01-01 00:23:30+00:00,30,10800,10800,1.0,0.0,0.1632558570237985,-0.32267268518518516,0.20452765354619085,-0.7,1.3,0.11125000000000007,0.05500000000000005,2.0
mitdb,1_47,1,100,0,,mlii,1970-01-01 00:23:30+00:00,1970-01-01 00:24:00+00:00,30,10800,10800,1.0,0.0,0.16168163718862857,-0.30379953703703705,0.20389566695682215,-0.71,1.32,0.11499999999999999,0.05499999999999999,2.0300000000000002
mitdb,1_48,1,100,0,,mlii,1970-01-01 00:24:00+00:00,1970-01-01 00:24:30+00:00,30,10800,10800,1.0,0.0,0.1567737753495694,-0.28656018518518517,0.19985326844512202,-0.64,1.285,0.12,0.06,1.9249999999999998
mitdb,1_49,1,100,0,,mlii,1970-01-01 00:24:30+00:00,1970-01-01 00:25:00+00:00,30,10800,10800,1.0,0.0,0.16279285118992498,-0.2847240740740741,0.21050691483802564,-0.655,1.415,0.12,0.06,2.0700000000000003
mitdb,1_50,1,100,0,,mlii,1970-01-01 00:25:00+00:00,1970-01-01 00:25:30+00:00,30,10800,10800,1.0,0.0,0.16408926752477082,-0.3029087962962963,0.2268549071937725,-2.715,1.25,0.10999999999999999,0.05499999999999999,3.965
mitdb,1_51,1,100,0,,mlii,1970-01-01 00:25:30+00:00,1970-01-01 00:26:00+00:00,30,10800,10800,1.0,0.0,0.15705157884989351,-0.32381435185185187,0.20243584329959494,-0.72,1.25,0.11000000000000004,0.05499999999999999,1.97
mitdb,1_52,1,100,0,,mlii,1970-01-01 00:26:00+00:00,1970-01-01 00:26:30+00:00,30,10800,10800,1.0,0.0,0.15325493101213075,-0.3187287037037037,0.20367017332891232,-0.675,1.415,0.11500000000000005,0.06,2.09
mitdb,1_53,1,100,0,,mlii,1970-01-01 00:26:30+00:00,1970-01-01 00:27:00+00:00,30,10800,10800,1.0,0.0,0.15594036484859708,-0.3091351851851852,0.20757172090472026,-0.875,1.375,0.11499999999999999,0.05500000000000005,2.25
mitdb,1_54,1,100,0,,mlii,1970-01-01 00:27:00+00:00,1970-01-01 00:27:30+00:00,30,10800,10800,1.0,0.0,0.16584868969349015,-0.3188564814814815,0.20107155242818134,-0.765,1.315,0.13,0.065,2.08
mitdb,1_55,1,100,0,,mlii,1970-01-01 00:27:30+00:00,1970-01-01 00:28:00+00:00,30,10800,10800,1.0,0.0,0.1625150476896009,-0.3281898148148148,0.20658232757984196,-0.72,1.19,0.14,0.07,1.91
mitdb,1_56,1,100,0,,mlii,1970-01-01 00:28:00+00:00,1970-01-01 00:28:30+00:00,30,10800,10800,1.0,0.0,0.15992221501990925,-0.3048939814814815,0.21060102625428256,-0.765,1.33,0.13,0.065,2.095
mitdb,1_57,1,100,0,,mlii,1970-01-01 00:28:30+00:00,1970-01-01 00:29:00+00:00,30,10800,10800,1.0,0.0,0.1634410593573479,-0.2800421296296296,0.2089637066799382,-0.61,1.29,0.11499999999999999,0.05499999999999999,1.9
mitdb,1_58,1,100,0,,mlii,1970-01-01 00:29:00+00:00,1970-01-01 00:29:30+00:00,30,10800,10800,1.0,0.0,0.15908880451893695,-0.3061930555555556,0.21002635715324303,-0.72,1.285,0.12,0.06,2.005
mitdb,1_59,1,100,0,,mlii,1970-01-01 00:29:30+00:00,1970-01-01 00:30:00+00:00,30,10800,10800,1.0,0.0,0.1487174738401704,-0.2980777777777778,0.1956192710830494,-0.66,1.27,0.11499999999999999,0.05499999999999999,1.9300000000000002
mitdb,1_60,1,100,0,,mlii,1970-01-01 00:30:00+00:00,1970-01-01 00:30:30+00:00,30,10800,2000,0.18518518518518517,0.8148148148148148,0.1645822911455728,-0.321255,0.1974779069589013,-1.28,1.0,0.11500000000000005,0.06,2.2800000000000002
mitdb,2_0,2,100,0,,v5,1970-01-01 00:00:00+00:00,1970-01-01 00:00:30+00:00,30,10800,10800,1.0,0.0,0.15344013334568016,-0.24397546296296296,0.1288654354133463,-0.525,0.815,0.095,0.04999999999999999,1.3399999999999999
mitdb,2_1,2,100,0,,v5,1970-01-01 00:00:30+00:00,1970-01-01 00:01:00+00:00,30,10800,10800,1.0,0.0,0.16047782202055746,-0.22814027777777776,0.135603865783822,-0.515,0.85,0.10499999999999998,0.04999999999999999,1.365
mitdb,2_2,2,100,0,,v5,1970-01-01 00:01:00+00:00,1970-01-01 00:01:30+00:00,30,10800,10800,1.0,0.0,0.15890360218538754,-0.2821300925925926,0.13093966571300575,-0.555,0.815,0.09000000000000002,0.044999999999999984,1.37
mitdb,2_3,2,100,0,,v5,1970-01-01 00:01:30+00:00,1970-01-01 00:02:00+00:00,30,10800,10800,1.0,0.0,0.15955181035281044,-0.23369212962962962,0.13080261870753235,-0.52,0.845,0.10499999999999998,0.05499999999999999,1.365
mitdb,2_4,2,100,0,,v5,1970-01-01 00:02:00+00:00,1970-01-01 00:02:30+00:00,30,10800,10800,1.0,0.0,0.15955181035281044,-0.26059212962962963,0.12200264606141735,-0.52,0.72,0.08499999999999999,0.044999999999999984,1.24
mitdb,2_5,2,100,0,,v5,1970-01-01 00:02:30+00:00,1970-01-01 00:03:00+00:00,30,10800,10800,1.0,0.0,0.16640429669413834,-0.24237083333333334,0.11746706328105576,-0.51,0.67,0.095,0.04500000000000001,1.1800000000000002
mitdb,2_6,2,100,0,,v5,1970-01-01 00:03:00+00:00,1970-01-01 00:03:30+00:00,30,10800,10800,1.0,0.0,0.16020001852023336,-0.22909444444444443,0.1252579683372362,-0.515,0.85,0.08999999999999997,0.04500000000000004,1.365
mitdb,2_7,2,100,0,,v5,1970-01-01 00:03:30+00:00,1970-01-01 00:04:00+00:00,30,10800,10800,1.0,0.0,0.15853319751828873,-0.2283166666666667,0.13227408883555278,-0.52,0.825,0.10999999999999999,0.05499999999999999,1.345
mitdb,2_8,2,100,0,,v5,1970-01-01 00:04:00+00:00,1970-01-01 00:04:30+00:00,30,10800,10800,1.0,0.0,0.15251412167793313,-0.24938333333333335,0.1379868932928858,-0.595,0.855,0.12,0.06,1.45
mitdb,2_9,2,100,0,,v5,1970-01-01 00:04:30+00:00,1970-01-01 00:05:00+00:00,30,10800,10800,1.0,0.0,0.15723678118344292,-0.22406666666666666,0.11919558685122496,-0.495,0.81,0.08000000000000002,0.04000000000000001,1.3050000000000002
mitdb,2_10,2,100,0,,v5,1970-01-01 00:05:00+00:00,1970-01-01 00:05:30+00:00,30,10800,10800,1.0,0.0,0.15612556718214649,-0.18150833333333333,0.1509712909857926,-0.54,0.875,0.12000000000000002,0.06,1.415
mitdb,2_11,2,100,0,,v5,1970-01-01 00:05:30+00:00,1970-01-01 00:06:00+00:00,30,10800,10800,1.0,0.0,0.15297712751180664,-0.3250064814814815,0.23645468016993404,-1.215,0.695,0.275,0.10500000000000001,1.9100000000000001
mitdb,2_12,2,100,0,,v5,1970-01-01 00:06:00+00:00,1970-01-01 00:06:30+00:00,30,10800,10800,1.0,0.0,0.15316232984535605,-0.14065185185185186,0.19052807023397958,-0.61,1.225,0.21000000000000002,0.08000000000000002,1.835
mitdb,2_13,2,100,0,,v5,1970-01-01 00:06:30+00:00,1970-01-01 00:07:00+00:00,30,10800,10800,1.0,0.0,0.1509399018427632,-0.22079722222222223,0.15451703772520262,-0.615,0.755,0.155,0.07500000000000001,1.37
mitdb,2_14,2,100,0,,v5,1970-01-01 00:07:00+00:00,1970-01-01 00:07:30+00:00,30,10800,10800,1.0,0.0,0.15399574034632837,-0.22058333333333335,0.11815729713162246,-0.53,0.69,0.09500000000000003,0.05000000000000002,1.22
mitdb,2_15,2,100,0,,v5,1970-01-01 00:07:30+00:00,1970-01-01 00:08:00+00:00,30,10800,10800,1.0,0.0,0.16103342902120565,-0.2607990740740741,0.10730288469932603,-0.565,0.52,0.07999999999999999,0.04000000000000001,1.085
mitdb,2_16,2,100,0,,v5,1970-01-01 00:08:00+00:00,1970-01-01 00:08:30+00:00,30,10800,10800,1.0,0.0,0.15260672284470783,-0.1857902777777778,0.1326366250371555,-0.465,0.865,0.10999999999999999,0.05499999999999999,1.33
mitdb,2_17,2,100,0,,v5,1970-01-01 00:08:30+00:00,1970-01-01 00:09:00+00:00,30,10800,10800,1.0,0.0,0.16131123252152976,-0.2132824074074074,0.11946065503906285,-0.51,0.71,0.10500000000000001,0.05499999999999999,1.22
mitdb,2_18,2,100,0,,v5,1970-01-01 00:09:00+00:00,1970-01-01 00:09:30+00:00,30,10800,10800,1.0,0.0,0.15742198351699233,-0.21523518518518517,0.1349878507391453,-0.54,0.875,0.10000000000000003,0.05000000000000002,1.415
mitdb,2_19,2,100,0,,v5,1970-01-01 00:09:30+00:00,1970-01-01 00:10:00+00:00,30,10800,10800,1.0,0.0,0.1633484581905732,-0.2215847222222222,0.11754576314717545,-0.475,0.7,0.08500000000000002,0.04000000000000001,1.1749999999999998
mitdb,2_20,2,100,0,,v5,1970-01-01 00:10:00+00:00,1970-01-01 00:10:30+00:00,30,10800,10800,1.0,0.0,0.15807019168441522,-0.19631342592592593,0.12264731747218346,-0.495,0.755,0.08499999999999999,0.044999999999999984,1.25
mitdb,2_21,2,100,0,,v5,1970-01-01 00:10:30+00:00,1970-01-01 00:11:00+00:00,30,10800,10800,1.0,0.0,0.1576997870173164,-0.19775416666666665,0.11846301024389841,-0.49,0.75,0.095,0.04500000000000001,1.24
mitdb,2_22,2,100,0,,v5,1970-01-01 00:11:00+00:00,1970-01-01 00:11:30+00:00,30,10800,10800,1.0,0.0,0.15038429484211502,-0.20333194444444447,0.13586081287808013,-0.545,1.05,0.09,0.044999999999999984,1.5950000000000002
mitdb,2_23,2,100,0,,v5,1970-01-01 00:11:30+00:00,1970-01-01 00:12:00+00:00,30,10800,10800,1.0,0.0,0.15288452634503194,-0.18630462962962963,0.13210103051816538,-0.525,0.905,0.08499999999999999,0.04000000000000001,1.4300000000000002
mitdb,2_24,2,100,0,,v5,1970-01-01 00:12:00+00:00,1970-01-01 00:12:30+00:00,30,10800,10800,1.0,0.0,0.15371793684600427,-0.1948791666666667,0.12537964103403193,-0.47,0.835,0.095,0.04500000000000001,1.305
mitdb,2_25,2,100,0,,v5,1970-01-01 00:12:30+00:00,1970-01-01 00:13:00+00:00,30,10800,10800,1.0,0.0,0.1566811741827947,-0.17129444444444444,0.1348014572606234,-0.51,1.01,0.095,0.04500000000000001,1.52
mitdb,2_26,2,100,0,,v5,1970-01-01 00:13:00+00:00,1970-01-01 00:13:30+00:00,30,10800,10800,1.0,0.0,0.15881100101861284,-0.1829527777777778,0.14250027363347748,-0.475,0.95,0.07999999999999999,0.03999999999999998,1.4249999999999998
mitdb,2_27,2,100,0,,v5,1970-01-01 00:13:30+00:00,1970-01-01 00:14:00+00:00,30,10800,10800,1.0,0.0,0.15381053801277897,-0.19012685185185185,0.14242405735490402,-0.56,1.005,0.1,0.04999999999999999,1.565
mitdb,2_28,2,100,0,,v5,1970-01-01 00:14:00+00:00,1970-01-01 00:14:30+00:00,30,10800,10800,1.0,0.0,0.1576071858505417,-0.18332638888888889,0.14412166784375494,-0.495,0.99,0.12,0.06,1.4849999999999999
mitdb,2_29,2,100,0,,v5,1970-01-01 00:14:30+00:00,1970-01-01 00:15:00+00:00,30,10800,10800,1.0,0.0,0.15177331234373553,-0.19145833333333334,0.13655870719981378,-0.495,0.955,0.10500000000000001,0.05499999999999999,1.45
mitdb,2_30,2,100,0,,v5,1970-01-01 00:15:00+00:00,1970-01-01 00:15:30+00:00,30,10800,10800,1.0,0.0,0.15519955551439948,-0.1598337962962963,0.13862749655339804,-0.485,0.95,0.10500000000000001,0.05000000000000002,1.435
mitdb,2_31,2,100,0,,v5,1970-01-01 00:15:30+00:00,1970-01-01 00:16:00+00:00,30,10800,10800,1.0,0.0,0.16047782202055746,-0.17097314814814815,0.12343233929872025,-0.43,0.875,0.08499999999999999,0.04000000000000001,1.305
mitdb,2_32,2,100,0,,v5,1970-01-01 00:16:00+00:00,1970-01-01 00:16:30+00:00,30,10800,10800,1.0,0.0,0.15844059635151403,-0.17039861111111113,0.13646013539021037,-0.455,0.98,0.09999999999999998,0.04999999999999999,1.435
mitdb,2_33,2,100,0,,v5,1970-01-01 00:16:30+00:00,1970-01-01 00:17:00+00:00,30,10800,10800,1.0,0.0,0.15269932401148253,-0.1797712962962963,0.1415698941161978,-0.455,1.0,0.09,0.04500000000000001,1.455
mitdb,2_34,2,100,0,,v5,1970-01-01 00:17:00+00:00,1970-01-01 00:17:30+00:00,30,10800,10800,1.0,0.0,0.15723678118344292,-0.17292175925925926,0.14094858709064748,-0.455,0.99,0.09499999999999997,0.04500000000000001,1.445
mitdb,2_35,2,100,0,,v5,1970-01-01 00:17:30+00:00,1970-01-01 00:18:00+00:00,30,10800,10800,1.0,0.0,0.15316232984535605,-0.18091296296296294,0.1471103263343348,-0.505,1.035,0.1,0.04999999999999999,1.54
mitdb,2_36,2,100,0,,v5,1970-01-01 00:18:00+00:00,1970-01-01 00:18:30+00:00,30,10800,10800,1.0,0.0,0.15501435318085008,-0.1925861111111111,0.13476130493565516,-0.495,0.885,0.09,0.044999999999999984,1.38
mitdb,2_37,2,100,0,,v5,1970-01-01 00:18:30+00:00,1970-01-01 00:19:00+00:00,30,10800,10800,1.0,0.0,0.15408834151310308,-0.1854726851851852,0.13921742036331838,-0.52,0.925,0.09,0.04500000000000001,1.445
mitdb,2_38,2,100,0,,v5,1970-01-01 00:19:00+00:00,1970-01-01 00:19:30+00:00,30,10800,10800,1.0,0.0,0.15279192517825724,-0.1790337962962963,0.1494797108889265,-0.52,1.07,0.11499999999999999,0.05499999999999999,1.59
mitdb,2_39,2,100,0,,v5,1970-01-01 00:19:30+00:00,1970-01-01 00:20:00+00:00,30,10800,10800,1.0,0.0,0.15492175201407538,-0.15512824074074075,0.1399302166862562,-0.5,1.085,0.1,0.04999999999999999,1.585
mitdb,2_40,2,100,0,,v5,1970-01-01 00:20:00+00:00,1970-01-01 00:20:30+00:00,30,10800,10800,1.0,0.0,0.1578849893508658,-0.1832263888888889,0.13899544397429836,-0.465,0.945,0.095,0.04500000000000001,1.41
mitdb,2_41,2,100,0,,v5,1970-01-01 00:20:30+00:00,1970-01-01 00:21:00+00:00,30,10800,10800,1.0,0.0,0.15705157884989351,-0.14128148148148148,0.14706479812425577,-0.47,1.18,0.10999999999999999,0.05499999999999999,1.65
mitdb,2_42,2,100,0,,v5,1970-01-01 00:21:00+00:00,1970-01-01 00:21:30+00:00,30,10800,10800,1.0,0.0,0.1576071858505417,-0.15513888888888888,0.14992642318911376,-0.485,1.09,0.12000000000000001,0.06000000000000001,1.5750000000000002
mitdb,2_43,2,100,0,,v5,1970-01-01 00:21:30+00:00,1970-01-01 00:22:00+00:00,30,10800,10800,1.0,0.0,0.1510325030095379,-0.12442361111111112,0.14508833120596337,-0.505,1.055,0.115,0.06,1.56
mitdb,2_44,2,100,0,,v5,1970-01-01 00:22:00+00:00,1970-01-01 00:22:30+00:00,30,10800,10800,1.0,0.0,0.1564959718492453,-0.12342777777777778,0.1507122804165135,-0.47,1.15,0.13,0.06499999999999997,1.6199999999999999
mitdb,2_45,2,100,0,,v5,1970-01-01 00:22:30+00:00,1970-01-01 00:23:00+00:00,30,10800,10800,1.0,0.0,0.15492175201407538,-0.18316203703703704,0.14202426674741805,-0.515,1.015,0.10999999999999999,0.05499999999999999,1.5299999999999998
mitdb,2_46,2,100,0,,v5,1970-01-01 00:23:00+00:00,1970-01-01 00:23:30+00:00,30,10800,10800,1.0,0.0,0.15251412167793313,-0.16592222222222222,0.1462707597807447,-0.47,1.145,0.1,0.04999999999999999,1.615
mitdb,2_47,2,100,0,,v5,1970-01-01 00:23:30+00:00,1970-01-01 00:24:00+00:00,30,10800,10800,1.0,0.0,0.15140290767663672,-0.24786481481481482,0.14650259940851004,-0.635,0.96,0.10500000000000001,0.05000000000000002,1.595
mitdb,2_48,2,100,0,,v5,1970-01-01 00:24:00+00:00,1970-01-01 00:24:30+00:00,30,10800,10800,1.0,0.0,0.1624224465228262,-0.1881787037037037,0.15682559001062013,-0.685,1.01,0.14500000000000002,0.07,1.695
mitdb,2_49,2,100,0,,v5,1970-01-01 00:24:30+00:00,1970-01-01 00:25:00+00:00,30,10800,10800,1.0,0.0,0.16149643485507917,-0.16090925925925925,0.15431411385001523,-0.49,1.125,0.11499999999999999,0.05500000000000002,1.615
mitdb,2_50,2,100,0,,v5,1970-01-01 00:25:00+00:00,1970-01-01 00:25:30+00:00,30,10800,10800,1.0,0.0,0.15325493101213075,-0.16830138888888888,0.17302817762643202,-2.465,0.99,0.09999999999999998,0.05000000000000002,3.455
mitdb,2_51,2,100,0,,v5,1970-01-01 00:25:30+00:00,1970-01-01 00:26:00+00:00,30,10800,10800,1.0,0.0,0.15853319751828873,-0.22194027777777778,0.153141537295844,-0.585,0.975,0.13,0.065,1.56
mitdb,2_52,2,100,0,,v5,1970-01-01 00:26:00+00:00,1970-01-01 00:26:30+00:00,30,10800,10800,1.0,0.0,0.1567737753495694,-0.16070138888888888,0.14871236758558817,-0.495,1.1,0.10500000000000001,0.05000000000000002,1.5950000000000002
mitdb,2_53,2,100,0,,v5,1970-01-01 00:26:30+00:00,1970-01-01 00:27:00+00:00,30,10800,10800,1.0,0.0,0.1511251041763126,-0.16745925925925925,0.1536305797676125,-0.73,1.1,0.135,0.06999999999999999,1.83
mitdb,2_54,2,100,0,,v5,1970-01-01 00:27:00+00:00,1970-01-01 00:27:30+00:00,30,10800,10800,1.0,0.0,0.16029261968700806,-0.12686898148148149,0.1362228077731732,-0.46,0.98,0.11,0.05499999999999999,1.44
mitdb,2_55,2,100,0,,v5,1970-01-01 00:27:30+00:00,1970-01-01 00:28:00+00:00,30,10800,10800,1.0,0.0,0.15732938235021762,-0.14242824074074073,0.14611883009788443,-0.44,1.075,0.11,0.05499999999999999,1.515
mitdb,2_56,2,100,0,,v5,1970-01-01 00:28:00+00:00,1970-01-01 00:28:30+00:00,30,10800,10800,1.0,0.0,0.15816279285118992,-0.12715092592592592,0.1641861638414065,-0.53,1.095,0.16,0.07500000000000001,1.625
mitdb,2_57,2,100,0,,v5,1970-01-01 00:28:30+00:00,1970-01-01 00:29:00+00:00,30,10800,10800,1.0,0.0,0.15890360218538754,-0.14484074074074074,0.1535686176088567,-0.62,1.085,0.11,0.05499999999999999,1.705
mitdb,2_58,2,100,0,,v5,1970-01-01 00:29:00+00:00,1970-01-01 00:29:30+00:00,30,10800,10800,1.0,0.0,0.15825539401796462,-0.12369675925925926,0.1432009687286251,-0.495,0.99,0.08499999999999999,0.044999999999999984,1.4849999999999999
mitdb,2_59,2,100,0,,v5,1970-01-01 00:29:30+00:00,1970-01-01 00:30:00+00:00,30,10800,10800,1.0,0.0,0.149458283174368,-0.1584583333333333,0.15187133508835915,-0.485,1.19,0.11499999999999999,0.06,1.6749999999999998
mitdb,2_60,2,100,0,,v5,1970-01-01 00:30:00+00:00,1970-01-01 00:30:30+00:00,30,10800,2000,0.18518518518518517,0.8148148148148148,0.1470735367683842,-0.16354249999999998,0.1241509964869971,-0.51,0.745,0.07999999999999999,0.03999999999999998,1.255
mitdb,3_0,3,101,0,,mlii,1970-01-01 00:00:00+00:00,1970-01-01 00:00:30+00:00,30,10800,10800,1.0,0.0,0.15047689600888972,-0.28082407407407406,0.20021779874900195,-0.59,1.375,0.145,0.07250000000000001,1.9649999999999999
mitdb,3_1,3,101,0,,mlii,1970-01-01 00:00:30+00:00,1970-01-01 00:01:00+00:00,30,10800,10800,1.0,0.0,0.12528937864617093,-0.2762615740740741,0.22827660411691525,-0.66,1.59,0.17,0.08500000000000002,2.25
mitdb,3_2,3,101,0,,mlii,1970-01-01 00:01:00+00:00,1970-01-01 00:01:30+00:00,30,10800,10800,1.0,0.0,0.15362533567922956,-0.25064768518518515,0.2199753002916773,-0.73,1.385,0.19999999999999998,0.09500000000000003,2.115
mitdb,3_3,3,101,0,,mlii,1970-01-01 00:01:30+00:00,1970-01-01 00:02:00+00:00,30,10800,10800,1.0,0.0,0.11612186313547551,-0.32962083333333336,0.4420547178597293,-1.13,2.055,0.35,0.17499999999999993,3.185
mitdb,3_4,3,101,0,,mlii,1970-01-01 00:02:00+00:00,1970-01-01 00:02:30+00:00,30,10800,10800,1.0,0.0,0.09389758310954718,-0.2856314814814815,0.42447352697100427,-1.185,2.145,0.51,0.25,3.33
mitdb,3_5,3,101,0,,mlii,1970-01-01 00:02:30+00:00,1970-01-01 00:03:00+00:00,30,10800,10800,1.0,0.0,0.13704972682655803,-0.30649074074074073,0.5490956837571572,-3.175,2.42,0.21000000000000002,0.10499999999999998,5.595
mitdb,3_6,3,101,0,,mlii,1970-01-01 00:03:00+00:00,1970-01-01 00:03:30+00:00,30,10800,10800,1.0,0.0,0.1364941198259098,-0.29711944444444444,0.27153912640344763,-0.69,2.175,0.19,0.09499999999999997,2.8649999999999998
mitdb,3_7,3,101,0,,mlii,1970-01-01 00:03:30+00:00,1970-01-01 00:04:00+00:00,30,10800,10800,1.0,0.0,0.14353180850078712,-0.2753273148148148,0.2586159475888262,-0.715,1.81,0.18500000000000003,0.09000000000000002,2.525
mitdb,3_8,3,101,0,,mlii,1970-01-01 00:04:00+00:00,1970-01-01 00:04:30+00:00,30,10800,10800,1.0,0.0,0.14584683767015463,-0.2821976851851852,0.2506860783064461,-0.665,1.74,0.18500000000000003,0.08499999999999996,2.4050000000000002
mitdb,3_9,3,101,0,,mlii,1970-01-01 00:04:30+00:00,1970-01-01 00:05:00+00:00,30,10800,10800,1.0,0.0,0.15390313917955367,-0.25054074074074073,0.2313639651826589,-0.645,1.605,0.19,0.09500000000000003,2.25
mitdb,3_10,3,101,0,,mlii,1970-01-01 00:05:00+00:00,1970-01-01 00:05:30+00:00,30,10800,10800,1.0,0.0,0.13334568015556997,-0.26660416666666664,0.4121045144475924,-2.765,1.875,0.23999999999999996,0.11499999999999999,4.640000000000001
mitdb,3_11,3,101,0,,mlii,1970-01-01 00:05:30+00:00,1970-01-01 00:06:00+00:00,30,10800,10800,1.0,0.0,0.14603204000370404,-0.2953625,0.27583818265551197,-0.73,1.85,0.21125000000000002,0.10500000000000004,2.58
mitdb,3_12,3,101,0,,mlii,1970-01-01 00:06:00+00:00,1970-01-01 00:06:30+00:00,30,10800,10800,1.0,0.0,0.15047689600888972,-0.2675314814814815,0.2473248367946108,-0.775,1.77,0.16,0.07500000000000001,2.545
mitdb,3_13,3,101,0,,mlii,1970-01-01 00:06:30+00:00,1970-01-01 00:07:00+00:00,30,10800,10800,1.0,0.0,0.15464394851375127,-0.33001990740740744,0.24303154517314368,-0.67,1.61,0.15500000000000003,0.07500000000000001,2.2800000000000002
mitdb,3_14,3,101,0,,mlii,1970-01-01 00:07:00+00:00,1970-01-01 00:07:30+00:00,30,10800,10800,1.0,0.0,0.1563107695156959,-0.28282407407407406,0.2367686058067842,-0.585,1.6,0.15500000000000003,0.07499999999999996,2.185
mitdb,3_15,3,101,0,,mlii,1970-01-01 00:07:30+00:00,1970-01-01 00:08:00+00:00,30,10800,10800,1.0,0.0,0.14584683767015463,-0.30683935185185185,0.24711096437299168,-0.65,1.7,0.16999999999999998,0.08500000000000002,2.35
mitdb,3_16,3,101,0,,mlii,1970-01-01 00:08:00+00:00,1970-01-01 00:08:30+00:00,30,10800,10800,1.0,0.0,0.15232891934438375,-0.2592074074074074,0.2402914906956384,-0.575,1.75,0.18000000000000002,0.09000000000000002,2.325
mitdb,3_17,3,101,0,,mlii,1970-01-01 00:08:30+00:00,1970-01-01 00:09:00+00:00,30,10800,10800,1.0,0.0,0.11714047596999722,-0.24809074074074075,0.256322059799851,-0.66,1.735,0.19,0.09000000000000002,2.395
mitdb,3_18,3,101,0,,mlii,1970-01-01 00:09:00+00:00,1970-01-01 00:09:30+00:00,30,10800,10800,1.0,0.0,0.15223631817760905,-0.2869805555555555,0.23745837303729228,-0.62,1.57,0.16000000000000003,0.08000000000000002,2.19
mitdb,3_19,3,101,0,,mlii,1970-01-01 00:09:30+00:00,1970-01-01 00:10:00+00:00,30,10800,10800,1.0,0.0,0.15029169367534032,-0.29962453703703706,0.2293520270259774,-0.595,1.565,0.14499999999999996,0.07,2.16
mitdb,3_20,3,101,0,,mlii,1970-01-01 00:10:00+00:00,1970-01-01 00:10:30+00:00,30,10800,10800,1.0,0.0,0.14473562366885823,-0.2824828703703704,0.24313306266116463,-0.61,1.645,0.16000000000000003,0.08000000000000002,2.255
mitdb,3_21,3,101,0,,mlii,1970-01-01 00:10:30+00:00,1970-01-01 00:11:00+00:00,30,10800,10800,1.0,0.0,0.15603296601537178,-0.32554814814814814,0.220467508499986,-0.59,1.505,0.14500000000000002,0.07,2.0949999999999998
mitdb,3_22,3,101,0,,mlii,1970-01-01 00:11:00+00:00,1970-01-01 00:11:30+00:00,30,10800,10800,1.0,0.0,0.1564033706824706,-0.2760398148148148,0.24070747633544154,-0.65,1.63,0.15500000000000003,0.08000000000000002,2.28
mitdb,3_23,3,101,0,,mlii,1970-01-01 00:11:30+00:00,1970-01-01 00:12:00+00:00,30,10800,10800,1.0,0.0,0.1554773590147236,-0.3021055555555555,0.2290011242859326,-0.6,1.55,0.13499999999999995,0.065,2.15
mitdb,3_24,3,101,0,,mlii,1970-01-01 00:12:00+00:00,1970-01-01 00:12:30+00:00,30,10800,10800,1.0,0.0,0.15418094267987775,-0.24988564814814815,0.2449826997479615,-0.625,1.665,0.185,0.09000000000000002,2.29
mitdb,3_25,3,101,0,,mlii,1970-01-01 00:12:30+00:00,1970-01-01 00:13:00+00:00,30,10800,10800,1.0,0.0,0.1557551625150477,-0.2687759259259259,0.2601765977182692,-0.67,1.73,0.21,0.10499999999999998,2.4
mitdb,3_26,3,101,0,,mlii,1970-01-01 00:13:00+00:00,1970-01-01 00:13:30+00:00,30,10800,10800,1.0,0.0,0.16057042318733217,-0.28755555555555556,0.2312844387085463,-0.58,1.555,0.15000000000000002,0.07500000000000001,2.135
mitdb,3_27,3,101,0,,mlii,1970-01-01 00:13:30+00:00,1970-01-01 00:14:00+00:00,30,10800,10800,1.0,0.0,0.15344013334568016,-0.2465560185185185,0.24343828374224452,-0.605,1.64,0.18,0.09,2.245
mitdb,3_28,3,101,0,,mlii,1970-01-01 00:14:00+00:00,1970-01-01 00:14:30+00:00,30,10800,10800,1.0,0.0,0.13908695249560143,-0.25237638888888886,0.2627029017931372,-2.575,1.635,0.18,0.08500000000000002,4.21
mitdb,3_29,3,101,0,,mlii,1970-01-01 00:14:30+00:00,1970-01-01 00:15:00+00:00,30,10800,10800,1.0,0.0,0.15482915084730067,-0.2915652777777778,0.24067655204033678,-0.76,1.56,0.16999999999999998,0.08499999999999996,2.3200000000000003
mitdb,3_30,3,101,0,,mlii,1970-01-01 00:15:00+00:00,1970-01-01 00:15:30+00:00,30,10800,10800,1.0,0.0,0.1568663765163441,-0.23124212962962962,0.23603926548074827,-0.56,1.605,0.15999999999999998,0.07500000000000004,2.165
mitdb,3_31,3,101,0,,mlii,1970-01-01 00:15:30+00:00,1970-01-01 00:16:00+00:00,30,10800,10800,1.0,0.0,0.13084544865265302,-0.27894675925925927,0.2272444401842331,-0.67,1.755,0.14,0.07,2.425
mitdb,3_32,3,101,0,,mlii,1970-01-01 00:16:00+00:00,1970-01-01 00:16:30+00:00,30,10800,10800,1.0,0.0,0.1416797851652931,-0.28986666666666666,0.23838788940191805,-0.605,1.68,0.14,0.06499999999999995,2.285
mitdb,3_33,3,101,0,,mlii,1970-01-01 00:16:30+00:00,1970-01-01 00:17:00+00:00,30,10800,10800,1.0,0.0,0.15131030650986202,-0.27623796296296294,0.23675713301766196,-0.605,1.7,0.14,0.07,2.3049999999999997
mitdb,3_34,3,101,0,,mlii,1970-01-01 00:17:00+00:00,1970-01-01 00:17:30+00:00,30,10800,10800,1.0,0.0,0.15862579868506343,-0.2535023148148148,0.2267782973355971,-0.555,1.52,0.12999999999999998,0.065,2.075
mitdb,3_35,3,101,0,,mlii,1970-01-01 00:17:30+00:00,1970-01-01 00:18:00+00:00,30,10800,10800,1.0,0.0,0.15844059635151403,-0.2936976851851852,0.23560399472821877,-0.595,1.67,0.13,0.06000000000000005,2.2649999999999997
mitdb,3_36,3,101,0,,mlii,1970-01-01 00:18:00+00:00,1970-01-01 00:18:30+00:00,30,10800,10800,1.0,0.0,0.1488100750069451,-0.25809907407407406,0.23557273951465454,-0.565,1.62,0.12,0.05499999999999999,2.185
mitdb,3_37,3,101,0,,mlii,1970-01-01 00:18:30+00:00,1970-01-01 00:19:00+00:00,30,10800,10800,1.0,0.0,0.15427354384665246,-0.2918712962962963,0.23233533810931348,-0.58,1.53,0.10999999999999999,0.050000000000000044,2.11
mitdb,3_38,3,101,0,,mlii,1970-01-01 00:19:00+00:00,1970-01-01 00:19:30+00:00,30,10800,10800,1.0,0.0,0.15751458468376703,-0.3100953703703704,0.24294592914904692,-0.61,1.605,0.11499999999999999,0.06,2.215
mitdb,3_39,3,101,0,,mlii,1970-01-01 00:19:30+00:00,1970-01-01 00:20:00+00:00,30,10800,10800,1.0,0.0,0.16168163718862857,-0.3152657407407407,0.2413831292892679,-0.61,1.6,0.16499999999999998,0.08000000000000002,2.21
mitdb,3_40,3,101,0,,mlii,1970-01-01 00:20:00+00:00,1970-01-01 00:20:30+00:00,30,10800,10800,1.0,0.0,0.14843967033984629,-0.2920712962962963,0.24265839580664542,-0.615,1.665,0.15500000000000003,0.07499999999999996,2.2800000000000002
mitdb,3_41,3,101,0,,mlii,1970-01-01 00:20:30+00:00,1970-01-01 00:21:00+00:00,30,10800,10800,1.0,0.0,0.13936475599592554,-0.26744166666666663,0.2509173766143484,-0.63,1.705,0.17,0.08500000000000002,2.335
mitdb,3_42,3,101,0,,mlii,1970-01-01 00:21:00+00:00,1970-01-01 00:21:30+00:00,30,10800,10800,1.0,0.0,0.14529123066950644,-0.2765884259259259,0.24995285703359585,-0.59,1.61,0.18000000000000002,0.08999999999999997,2.2
mitdb,3_43,3,101,0,,mlii,1970-01-01 00:21:30+00:00,1970-01-01 00:22:00+00:00,30,10800,10800,1.0,0.0,0.1501990925085656,-0.3060449074074074,0.24514749538201303,-0.625,1.635,0.15499999999999997,0.07500000000000001,2.26
mitdb,3_44,3,101,0,,mlii,1970-01-01 00:22:00+00:00,1970-01-01 00:22:30+00:00,30,10800,10800,1.0,0.0,0.12019631447356237,-0.3115625,0.2501589933930309,-0.755,1.68,0.15999999999999998,0.07999999999999996,2.435
mitdb,3_45,3,101,0,,mlii,1970-01-01 00:22:30+00:00,1970-01-01 00:23:00+00:00,30,10800,10800,1.0,0.0,0.1357533104917122,-0.2630314814814815,0.238465147100639,-0.66,1.68,0.165,0.08000000000000002,2.34
mitdb,3_46,3,101,0,,mlii,1970-01-01 00:23:00+00:00,1970-01-01 00:23:30+00:00,30,10800,10800,1.0,0.0,0.13704972682655803,-0.2682574074074074,0.25952487884204223,-0.655,1.69,0.20500000000000002,0.09999999999999998,2.3449999999999998
mitdb,3_47,3,101,0,,mlii,1970-01-01 00:23:30+00:00,1970-01-01 00:24:00+00:00,30,10800,10800,1.0,0.0,0.1487174738401704,-0.2944240740740741,0.24921411205924976,-0.68,1.645,0.22,0.10999999999999999,2.325
mitdb,3_48,3,101,0,,mlii,1970-01-01 00:24:00+00:00,1970-01-01 00:24:30+00:00,30,10800,10800,1.0,0.0,0.15297712751180664,-0.2654611111111111,0.2432556624486496,-0.615,1.76,0.17500000000000002,0.08500000000000002,2.375
mitdb,3_49,3,101,0,,mlii,1970-01-01 00:24:30+00:00,1970-01-01 00:25:00+00:00,30,10800,10800,1.0,0.0,0.1638114640244467,-0.2970615740740741,0.22432582043861793,-0.615,1.6,0.10499999999999998,0.05499999999999999,2.215
mitdb,3_50,3,101,0,,mlii,1970-01-01 00:25:00+00:00,1970-01-01 00:25:30+00:00,30,10800,10800,1.0,0.0,0.15510695434762478,-0.30922685185185184,0.2301038598029761,-0.585,1.565,0.12,0.06,2.15
mitdb,3_51,3,101,0,,mlii,1970-01-01 00:25:30+00:00,1970-01-01 00:26:00+00:00,30,10800,10800,1.0,0.0,0.15732938235021762,-0.3298078703703704,0.22893762064134926,-0.625,1.5,0.125,0.065,2.125
mitdb,3_52,3,101,0,,mlii,1970-01-01 00:26:00+00:00,1970-01-01 00:26:30+00:00,30,10800,10800,1.0,0.0,0.16149643485507917,-0.2756412037037037,0.22826365298496262,-0.585,1.505,0.14500000000000002,0.07,2.09
mitdb,3_53,3,101,0,,mlii,1970-01-01 00:26:30+00:00,1970-01-01 00:27:00+00:00,30,10800,10800,1.0,0.0,0.16547828502639134,-0.2536287037037037,0.22791926939306348,-0.575,1.57,0.13999999999999999,0.065,2.145
mitdb,3_54,3,101,0,,mlii,1970-01-01 00:27:00+00:00,1970-01-01 00:27:30+00:00,30,10800,10800,1.0,0.0,0.15371793684600427,-0.28218611111111114,0.2360726536421264,-0.63,1.53,0.16500000000000004,0.07999999999999996,2.16
mitdb,3_55,3,101,0,,mlii,1970-01-01 00:27:30+00:00,1970-01-01 00:28:00+00:00,30,10800,10800,1.0,0.0,0.15732938235021762,-0.31250787037037037,0.23005454756263222,-0.625,1.535,0.14499999999999996,0.07,2.16
mitdb,3_56,3,101,0,,mlii,1970-01-01 00:28:00+00:00,1970-01-01 00:28:30+00:00,30,10800,10800,1.0,0.0,0.15334753217890545,-0.33260555555555554,0.23147021209157315,-0.645,1.515,0.16500000000000004,0.08000000000000002,2.16
mitdb,3_57,3,101,0,,mlii,1970-01-01 00:28:30+00:00,1970-01-01 00:29:00+00:00,30,10800,10800,1.0,0.0,0.15899620335216225,-0.32586527777777774,0.23356057179302225,-0.64,1.665,0.12,0.05499999999999999,2.305
mitdb,3_58,3,101,0,,mlii,1970-01-01 00:29:00+00:00,1970-01-01 00:29:30+00:00,30,10800,10800,1.0,0.0,0.15918140568571165,-0.29285648148148147,0.2202314080561355,-0.605,1.5,0.12,0.06,2.105
mitdb,3_59,3,101,0,,mlii,1970-01-01 00:29:30+00:00,1970-01-01 00:30:00+00:00,30,10800,10800,1.0,0.0,0.16427446985832023,-0.2424972222222222,0.2301577000593857,-0.54,1.59,0.11999999999999997,0.05999999999999997,2.13
mitdb,3_60,3,101,0,,mlii,1970-01-01 00:30:00+00:00,1970-01-01 00:30:30+00:00,30,10800,2000,0.18518518518518517,0.8148148148148148,0.17358679339669836,-0.25769749999999997,0.21277763781781142,-0.475,1.485,0.07,0.034999999999999976,1.96
mitdb,4_0,4,101,0,,v1,1970-01-01 00:00:00+00:00,1970-01-01 00:00:30+00:00,30,10800,10800,1.0,0.0,0.15992221501990925,-0.11048055555555555,0.04962560627250186,-0.41,0.05,0.05500000000000001,0.03,0.45999999999999996
mitdb,4_1,4,101,0,,v1,1970-01-01 00:00:30+00:00,1970-01-01 00:01:00+00:00,30,10800,10800,1.0,0.0,0.14686545050467636,-0.09785787037037037,0.05022167438946252,-0.33,0.09,0.07500000000000001,0.035,0.42000000000000004
mitdb,4_2,4,101,0,,v1,1970-01-01 00:01:00+00:00,1970-01-01 00:01:30+00:00,30,10800,10800,1.0,0.0,0.15732938235021762,-0.10407222222222222,0.04315638674289321,-0.36,0.035,0.05,0.024999999999999994,0.395
mitdb,4_3,4,101,0,,v1,1970-01-01 00:01:30+00:00,1970-01-01 00:02:00+00:00,30,10800,10800,1.0,0.0,0.14788406333919807,-0.08732777777777778,0.05953354478438666,-0.375,0.09,0.085,0.04000000000000001,0.46499999999999997
mitdb,4_4,4,101,0,,v1,1970-01-01 00:02:00+00:00,1970-01-01 00:02:30+00:00,30,10800,10800,1.0,0.0,0.15325493101213075,-0.09478472222222221,0.07815315116167924,-0.42,0.17,0.09000000000000001,0.044999999999999984,0.59
mitdb,4_5,4,101,0,,v1,1970-01-01 00:02:30+00:00,1970-01-01 00:03:00+00:00,30,10800,10800,1.0,0.0,0.16094082785443098,-0.10399398148148148,0.12689817942129264,-0.565,0.735,0.07499999999999998,0.035,1.2999999999999998
mitdb,4_6,4,101,0,,v1,1970-01-01 00:03:00+00:00,1970-01-01 00:03:30+00:00,30,10800,10800,1.0,0.0,0.16584868969349015,-0.06534027777777777,0.046601736775214765,-0.22,0.105,0.065,0.030000000000000006,0.325
mitdb,4_7,4,101,0,,v1,1970-01-01 00:03:30+00:00,1970-01-01 00:04:00+00:00,30,10800,10800,1.0,0.0,0.16520048152606723,-0.07096157407407408,0.033252533716104635,-0.2,0.07,0.045,0.024999999999999994,0.27
mitdb,4_8,4,101,0,,v1,1970-01-01 00:04:00+00:00,1970-01-01 00:04:30+00:00,30,10800,10800,1.0,0.0,0.17640522270580608,-0.09434537037037037,0.036292712932399614,-0.245,0.02,0.04999999999999999,0.024999999999999994,0.265
mitdb,4_9,4,101,0,,v1,1970-01-01 00:04:30+00:00,1970-01-01 00:05:00+00:00,30,10800,10800,1.0,0.0,0.17427539586998797,-0.07664722222222221,0.04337869167506747,-0.24,0.065,0.05499999999999999,0.03,0.305
mitdb,4_10,4,101,0,,v1,1970-01-01 00:05:00+00:00,1970-01-01 00:05:30+00:00,30,10800,10800,1.0,0.0,0.16705250486156126,-0.07381805555555555,0.09144473114138628,-0.355,0.605,0.065,0.035,0.96
mitdb,4_11,4,101,0,,v1,1970-01-01 00:05:30+00:00,1970-01-01 00:06:00+00:00,30,10800,10800,1.0,0.0,0.18214649504583758,-0.08779166666666667,0.03368421692786593,-0.225,0.035,0.05,0.024999999999999994,0.26
mitdb,4_12,4,101,0,,v1,1970-01-01 00:06:00+00:00,1970-01-01 00:06:30+00:00,30,10800,10800,1.0,0.0,0.1757570145383832,-0.11015138888888888,0.03348527695113725,-0.29,-0.01,0.05,0.02500000000000001,0.27999999999999997
mitdb,4_13,4,101,0,,v1,1970-01-01 00:06:30+00:00,1970-01-01 00:07:00+00:00,30,10800,10800,1.0,0.0,0.17353458653579035,-0.05687407407407408,0.04168689124453342,-0.225,0.085,0.06,0.03,0.31
mitdb,4_14,4,101,0,,v1,1970-01-01 00:07:00+00:00,1970-01-01 00:07:30+00:00,30,10800,10800,1.0,0.0,0.1702009445319011,-0.06164861111111112,0.042797004765805814,-0.225,0.06,0.06,0.03,0.28500000000000003
mitdb,4_15,4,101,0,,v1,1970-01-01 00:07:30+00:00,1970-01-01 00:08:00+00:00,30,10800,10800,1.0,0.0,0.18085007871099176,-0.11332777777777778,0.0467977224175632,-0.31,0.02,0.06999999999999999,0.03499999999999999,0.33
mitdb,4_16,4,101,0,,v1,1970-01-01 00:08:00+00:00,1970-01-01 00:08:30+00:00,30,10800,10800,1.0,0.0,0.17566441337160849,-0.08487824074074074,0.037711793353759585,-0.255,0.025,0.055,0.03,0.28
mitdb,4_17,4,101,0,,v1,1970-01-01 00:08:30+00:00,1970-01-01 00:09:00+00:00,30,10800,10800,1.0,0.0,0.17557181220483378,-0.07428240740740741,0.03158342299901628,-0.215,0.04,0.05,0.024999999999999994,0.255
mitdb,4_18,4,101,0,,v1,1970-01-01 00:09:00+00:00,1970-01-01 00:09:30+00:00,30,10800,10800,1.0,0.0,0.1838133160477822,-0.09135694444444444,0.03853170131969404,-0.285,0.005,0.06,0.02500000000000001,0.29
mitdb,4_19,4,101,0,,v1,1970-01-01 00:09:30+00:00,1970-01-01 00:10:00+00:00,30,10800,10800,1.0,0.0,0.1704787480322252,-0.10722175925925927,0.046237612758974374,-0.285,0.03,0.04500000000000001,0.020000000000000018,0.31499999999999995
mitdb,4_20,4,101,0,,v1,1970-01-01 00:10:00+00:00,1970-01-01 00:10:30+00:00,30,10800,10800,1.0,0.0,0.16770071302898418,-0.08678703703703704,0.02835801924996828,-0.235,0.015,0.03499999999999999,0.01999999999999999,0.25
mitdb,4_21,4,101,0,,v1,1970-01-01 00:10:30+00:00,1970-01-01 00:11:00+00:00,30,10800,10800,1.0,0.0,0.17779424020742662,-0.07785462962962963,0.029458397478636024,-0.225,0.02,0.045000000000000005,0.020000000000000004,0.245
mitdb,4_22,4,101,0,,v1,1970-01-01 00:11:00+00:00,1970-01-01 00:11:30+00:00,30,10800,10800,1.0,0.0,0.16770071302898418,-0.10843287037037037,0.03261726028058973,-0.275,-0.02,0.045,0.024999999999999994,0.255
mitdb,4_23,4,101,0,,v1,1970-01-01 00:11:30+00:00,1970-01-01 00:12:00+00:00,30,10800,10800,1.0,0.0,0.17955366237614595,-0.08871342592592593,0.03940395111393357,-0.25,0.02,0.065,0.030000000000000006,0.27
mitdb,4_24,4,101,0,,v1,1970-01-01 00:12:00+00:00,1970-01-01 00:12:30+00:00,30,10800,10800,1.0,0.0,0.17483100287063616,-0.07330787037037037,0.033742749432639184,-0.26,0.02,0.045,0.020000000000000004,0.28
mitdb,4_25,4,101,0,,v1,1970-01-01 00:12:30+00:00,1970-01-01 00:13:00+00:00,30,10800,10800,1.0,0.0,0.17223817020094453,-0.0783324074074074,0.04018698385542497,-0.24,0.07,0.05499999999999999,0.03,0.31
mitdb,4_26,4,101,0,,v1,1970-01-01 00:13:00+00:00,1970-01-01 00:13:30+00:00,30,10800,10800,1.0,0.0,0.17084915269932402,-0.07284120370370371,0.03334507370786013,-0.235,0.035,0.045,0.020000000000000004,0.27
mitdb,4_27,4,101,0,,v1,1970-01-01 00:13:30+00:00,1970-01-01 00:14:00+00:00,30,10800,10800,1.0,0.0,0.1712195573664228,-0.0950263888888889,0.055471876932350714,-0.3,0.095,0.07500000000000001,0.035,0.395
mitdb,4_28,4,101,0,,v1,1970-01-01 00:14:00+00:00,1970-01-01 00:14:30+00:00,30,10800,10800,1.0,0.0,0.17492360403741086,-0.08912268518518518,0.048156988202592725,-0.27,0.505,0.05,0.02500000000000001,0.775
mitdb,4_29,4,101,0,,v1,1970-01-01 00:14:30+00:00,1970-01-01 00:15:00+00:00,30,10800,10800,1.0,0.0,0.1757570145383832,-0.07988333333333333,0.053161684863026054,-0.295,0.075,0.065,0.03,0.37
mitdb,4_30,4,101,0,,v1,1970-01-01 00:15:00+00:00,1970-01-01 00:15:30+00:00,30,10800,10800,1.0,0.0,0.1690897305306047,-0.09706018518518518,0.02223382729483304,-0.245,-0.02,0.03,0.015,0.225
mitdb,4_31,4,101,0,,v1,1970-01-01 00:15:30+00:00,1970-01-01 00:16:00+00:00,30,10800,10800,1.0,0.0,0.17362718770256505,-0.0687662037037037,0.04777097826039523,-0.265,0.06,0.06999999999999999,0.035,0.325
mitdb,4_32,4,101,0,,v1,1970-01-01 00:16:00+00:00,1970-01-01 00:16:30+00:00,30,10800,10800,1.0,0.0,0.16964533753125288,-0.09528194444444445,0.04101512674858714,-0.25,0.02,0.06,0.03,0.27
mitdb,4_33,4,101,0,,v1,1970-01-01 00:16:30+00:00,1970-01-01 00:17:00+00:00,30,10800,10800,1.0,0.0,0.17501620520418557,-0.07911018518518519,0.048949562986875986,-0.27,0.03,0.07,0.03499999999999999,0.30000000000000004
mitdb,4_34,4,101,0,,v1,1970-01-01 00:17:00+00:00,1970-01-01 00:17:30+00:00,30,10800,10800,1.0,0.0,0.18075747754421706,-0.07203472222222222,0.03743397061063651,-0.26,0.025,0.05,0.02500000000000001,0.28500000000000003
mitdb,4_35,4,101,0,,v1,1970-01-01 00:17:30+00:00,1970-01-01 00:18:00+00:00,30,10800,10800,1.0,0.0,0.17270117603481805,-0.10109953703703704,0.034648724699700005,-0.255,0.015,0.045,0.024999999999999994,0.27
mitdb,4_36,4,101,0,,v1,1970-01-01 00:18:00+00:00,1970-01-01 00:18:30+00:00,30,10800,10800,1.0,0.0,0.17427539586998797,-0.07834537037037037,0.028166297020596094,-0.205,0.015,0.04000000000000001,0.020000000000000004,0.21999999999999997
mitdb,4_37,4,101,0,,v1,1970-01-01 00:18:30+00:00,1970-01-01 00:19:00+00:00,30,10800,10800,1.0,0.0,0.1759422168719326,-0.08623148148148149,0.040957123902449745,-0.225,0.08,0.05500000000000001,0.03,0.305
mitdb,4_38,4,101,0,,v1,1970-01-01 00:19:00+00:00,1970-01-01 00:19:30+00:00,30,10800,10800,1.0,0.0,0.16492267802574312,-0.05219398148148149,0.042166355521836556,-0.2,0.095,0.060000000000000005,0.03,0.29500000000000004
mitdb,4_39,4,101,0,,v1,1970-01-01 00:19:30+00:00,1970-01-01 00:20:00+00:00,30,10800,10800,1.0,0.0,0.16788591536253356,-0.07605231481481482,0.039138225184973036,-0.235,0.05,0.05499999999999999,0.025,0.285
mitdb,4_40,4,101,0,,v1,1970-01-01 00:20:00+00:00,1970-01-01 00:20:30+00:00,30,10800,10800,1.0,0.0,0.17214556903416983,-0.07665324074074074,0.039259933549495106,-0.245,0.025,0.05499999999999999,0.03,0.27
mitdb,4_41,4,101,0,,v1,1970-01-01 00:20:30+00:00,1970-01-01 00:21:00+00:00,30,10800,10800,1.0,0.0,0.17418279470321327,-0.04962268518518518,0.04057855214937179,-0.205,0.07,0.05499999999999999,0.025,0.275
mitdb,4_42,4,101,0,,v1,1970-01-01 00:21:00+00:00,1970-01-01 00:21:30+00:00,30,10800,10800,1.0,0.0,0.1759422168719326,-0.06619490740740741,0.03141322779703658,-0.2,0.045,0.045,0.020000000000000004,0.245
mitdb,4_43,4,101,0,,v1,1970-01-01 00:21:30+00:00,1970-01-01 00:22:00+00:00,30,10800,10800,1.0,0.0,0.17547921103805908,-0.06816296296296297,0.035764575234009825,-0.195,0.075,0.05,0.02500000000000001,0.27
mitdb,4_44,4,101,0,,v1,1970-01-01 00:22:00+00:00,1970-01-01 00:22:30+00:00,30,10800,10800,1.0,0.0,0.17371978886933975,-0.06235185185185185,0.049244606768302,-0.225,0.095,0.07500000000000001,0.039999999999999994,0.32
mitdb,4_45,4,101,0,,v1,1970-01-01 00:22:30+00:00,1970-01-01 00:23:00+00:00,30,10800,10800,1.0,0.0,0.17510880637096027,-0.07212314814814816,0.04660649730034228,-0.245,0.065,0.06999999999999999,0.03499999999999999,0.31
mitdb,4_46,4,101,0,,v1,1970-01-01 00:23:00+00:00,1970-01-01 00:23:30+00:00,30,10800,10800,1.0,0.0,0.16640429669413834,-0.06180833333333333,0.04572459220433778,-0.225,0.05,0.06,0.03,0.275
mitdb,4_47,4,101,0,,v1,1970-01-01 00:23:30+00:00,1970-01-01 00:24:00+00:00,30,10800,10800,1.0,0.0,0.15936660801926103,-0.05266712962962963,0.04520943262751228,-0.19,0.1,0.065,0.030000000000000006,0.29000000000000004
mitdb,4_48,4,101,0,,v1,1970-01-01 00:24:00+00:00,1970-01-01 00:24:30+00:00,30,10800,10800,1.0,0.0,0.16177423835540328,-0.06013194444444444,0.04399413098770901,-0.205,0.075,0.06,0.03,0.27999999999999997
mitdb,4_49,4,101,0,,v1,1970-01-01 00:24:30+00:00,1970-01-01 00:25:00+00:00,30,10800,10800,1.0,0.0,0.1647374756921937,-0.10926666666666666,0.027984991281268672,-0.235,0.005,0.04000000000000001,0.020000000000000004,0.24
mitdb,4_50,4,101,0,,v1,1970-01-01 00:25:00+00:00,1970-01-01 00:25:30+00:00,30,10800,10800,1.0,0.0,0.17251597370126864,-0.06143518518518518,0.053768059527538714,-0.205,0.1,0.07999999999999999,0.039999999999999994,0.305
mitdb,4_51,4,101,0,,v1,1970-01-01 00:25:30+00:00,1970-01-01 00:26:00+00:00,30,10800,10800,1.0,0.0,0.17112695619964813,-0.05792638888888889,0.027264785060843438,-0.185,0.03,0.034999999999999996,0.015000000000000006,0.215
mitdb,4_52,4,101,0,,v1,1970-01-01 00:26:00+00:00,1970-01-01 00:26:30+00:00,30,10800,10800,1.0,0.0,0.17214556903416983,-0.05927916666666667,0.0294139965670384,-0.195,0.035,0.04,0.020000000000000004,0.23
mitdb,4_53,4,101,0,,v1,1970-01-01 00:26:30+00:00,1970-01-01 00:27:00+00:00,30,10800,10800,1.0,0.0,0.16418186869154552,-0.08903518518518519,0.051232333343101344,-0.235,0.07,0.07500000000000001,0.035,0.305
mitdb,4_54,4,101,0,,v1,1970-01-01 00:27:00+00:00,1970-01-01 00:27:30+00:00,30,10800,10800,1.0,0.0,0.17399759236966386,-0.0665074074074074,0.049989867857003975,-0.285,0.075,0.065,0.034999999999999996,0.36
mitdb,4_55,4,101,0,,v1,1970-01-01 00:27:30+00:00,1970-01-01 00:28:00+00:00,30,10800,10800,1.0,0.0,0.17399759236966386,-0.05518796296296296,0.04224855177806407,-0.21,0.08,0.060000000000000005,0.03,0.29
mitdb,4_56,4,101,0,,v1,1970-01-01 00:28:00+00:00,1970-01-01 00:28:30+00:00,30,10800,10800,1.0,0.0,0.17788684137420133,-0.04228425925925926,0.03911749573346957,-0.215,0.055,0.060000000000000005,0.03,0.27
mitdb,4_57,4,101,0,,v1,1970-01-01 00:28:30+00:00,1970-01-01 00:29:00+00:00,30,10800,10800,1.0,0.0,0.17325678303546624,-0.059908333333333334,0.026627868117751072,-0.19,0.035,0.04,0.019999999999999997,0.225
mitdb,4_58,4,101,0,,v1,1970-01-01 00:29:00+00:00,1970-01-01 00:29:30+00:00,30,10800,10800,1.0,0.0,0.17797944254097603,-0.05813981481481481,0.03985095725699081,-0.235,0.07,0.05,0.025,0.305
mitdb,4_59,4,101,0,,v1,1970-01-01 00:29:30+00:00,1970-01-01 00:30:00+00:00,30,10800,10800,1.0,0.0,0.1839985183813316,-0.04073611111111111,0.033724833251989404,-0.195,0.075,0.05500000000000001,0.02500000000000001,0.27
mitdb,4_60,4,101,0,,v1,1970-01-01 00:30:00+00:00,1970-01-01 00:30:30+00:00,30,10800,2000,0.18518518518518517,0.8148148148148148,0.17558779389694848,-0.0446475,0.030573773426922312,-0.16,0.035,0.045,0.02,0.195
mitdb,5_0,5,102,0,,v5,1970-01-01 00:00:00+00:00,1970-01-01 00:00:30+00:00,30,10800,10800,1.0,0.0,0.1510325030095379,-0.24159074074074072,0.17743311300622527,-0.74,0.955,0.135,0.06500000000000003,1.6949999999999998
mitdb,5_1,5,102,0,,v5,1970-01-01 00:00:30+00:00,1970-01-01 00:01:00+00:00,30,10800,10800,1.0,0.0,0.15955181035281044,-0.28292083333333334,0.1854104092158462,-0.8,0.94,0.165,0.08000000000000002,1.74
mitdb,5_2,5,102,0,,v5,1970-01-01 00:01:00+00:00,1970-01-01 00:01:30+00:00,30,10800,10800,1.0,0.0,0.15325493101213075,-0.27161944444444447,0.20284182871009965,-0.745,1.155,0.21000000000000002,0.10500000000000004,1.9
mitdb,5_3,5,102,0,,v5,1970-01-01 00:01:30+00:00,1970-01-01 00:02:00+00:00,30,10800,10800,1.0,0.0,0.15455134734697656,-0.2671175925925926,0.19733002760866708,-1.41,1.375,0.145,0.07,2.785
mitdb,5_4,5,102,0,,v5,1970-01-01 00:02:00+00:00,1970-01-01 00:02:30+00:00,30,10800,10800,1.0,0.0,0.14418001666821,-0.28326527777777777,0.1722888558628763,-0.66,0.49,0.13499999999999998,0.065,1.15
mitdb,5_5,5,102,0,,v5,1970-01-01 00:02:30+00:00,1970-01-01 00:03:00+00:00,30,10800,10800,1.0,0.0,0.15121770534308732,-0.22398518518518518,0.17426358160192762,-0.56,0.97,0.11499999999999999,0.05000000000000002,1.53
mitdb,5_6,5,102,0,,v5,1970-01-01 00:03:00+00:00,1970-01-01 00:03:30+00:00,30,10800,10800,1.0,0.0,0.14677284933790166,-0.24718842592592594,0.19226657757117965,-0.73,1.04,0.13499999999999998,0.06499999999999997,1.77
mitdb,5_7,5,102,0,,v5,1970-01-01 00:03:30+00:00,1970-01-01 00:04:00+00:00,30,10800,10800,1.0,0.0,0.1509399018427632,-0.25546944444444447,0.19059870286911504,-0.72,0.94,0.12999999999999998,0.06,1.66
mitdb,5_8,5,102,0,,v5,1970-01-01 00:04:00+00:00,1970-01-01 00:04:30+00:00,30,10800,10800,1.0,0.0,0.148532271506621,-0.24723472222222223,0.1938600038210681,-0.665,0.985,0.155,0.07500000000000001,1.65
mitdb,5_9,5,102,0,,v5,1970-01-01 00:04:30+00:00,1970-01-01 00:05:00+00:00,30,10800,10800,1.0,0.0,0.15260672284470783,-0.25134398148148146,0.1927654196204876,-0.66,1.0,0.13999999999999999,0.06999999999999998,1.6600000000000001
mitdb,5_10,5,102,0,,v5,1970-01-01 00:05:00+00:00,1970-01-01 00:05:30+00:00,30,10800,10800,1.0,0.0,0.15075469950921383,-0.22454351851851853,0.200633961328127,-0.645,1.015,0.15500000000000003,0.08000000000000002,1.66
mitdb,5_11,5,102,0,,v5,1970-01-01 00:05:30+00:00,1970-01-01 00:06:00+00:00,30,10800,10800,1.0,0.0,0.1567737753495694,-0.26018981481481485,0.19161780253011493,-0.66,0.895,0.13999999999999999,0.06999999999999998,1.5550000000000002
mitdb,5_12,5,102,0,,v5,1970-01-01 00:06:00+00:00,1970-01-01 00:06:30+00:00,30,10800,10800,1.0,0.0,0.14232799333271598,-0.25516805555555555,0.19317058160464817,-0.695,0.945,0.13999999999999999,0.07,1.64
mitdb,5_13,5,102,0,,v5,1970-01-01 00:06:30+00:00,1970-01-01 00:07:00+00:00,30,10800,10800,1.0,0.0,0.15705157884989351,-0.28661805555555553,0.18667481305760583,-0.735,0.835,0.14,0.07,1.5699999999999998
mitdb,5_14,5,102,0,,v5,1970-01-01 00:07:00+00:00,1970-01-01 00:07:30+00:00,30,10800,10800,1.0,0.0,0.15232891934438375,-0.2603990740740741,0.19676224028232778,-0.735,0.935,0.145,0.07499999999999998,1.67
mitdb,5_15,5,102,0,,v5,1970-01-01 00:07:30+00:00,1970-01-01 00:08:00+00:00,30,10800,10800,1.0,0.0,0.15455134734697656,-0.23597824074074075,0.19468068358381244,-0.615,0.98,0.13500000000000004,0.06999999999999995,1.595
mitdb,5_16,5,102,0,,v5,1970-01-01 00:08:00+00:00,1970-01-01 00:08:30+00:00,30,10800,10800,1.0,0.0,0.15742198351699233,-0.24470648148148147,0.1887045822142929,-0.655,1.03,0.15,0.07499999999999996,1.685
mitdb,5_17,5,102,0,,v5,1970-01-01 00:08:30+00:00,1970-01-01 00:09:00+00:00,30,10800,10800,1.0,0.0,0.15279192517825724,-0.25852685185185187,0.20155338553442245,-0.73,0.975,0.16,0.07999999999999999,1.705
mitdb,5_18,5,102,0,,v5,1970-01-01 00:09:00+00:00,1970-01-01 00:09:30+00:00,30,10800,10800,1.0,0.0,0.15223631817760905,-0.2601875,0.19000048623165586,-0.675,1.02,0.12999999999999998,0.065,1.695
mitdb,5_19,5,102,0,,v5,1970-01-01 00:09:30+00:00,1970-01-01 00:10:00+00:00,30,10800,10800,1.0,0.0,0.15316232984535605,-0.23945324074074073,0.19808283274727603,-1.04,0.935,0.15499999999999997,0.07999999999999996,1.975
mitdb,5_20,5,102,0,,v5,1970-01-01 00:10:00+00:00,1970-01-01 00:10:30+00:00,30,10800,10800,1.0,0.0,0.1493656820075933,-0.26575462962962965,0.18698871389680705,-0.695,0.9,0.13,0.065,1.595
mitdb,5_21,5,102,0,,v5,1970-01-01 00:10:30+00:00,1970-01-01 00:11:00+00:00,30,10800,10800,1.0,0.0,0.15371793684600427,-0.21477962962962963,0.19713091065716595,-0.645,1.025,0.15000000000000002,0.07500000000000001,1.67
mitdb,5_22,5,102,0,,v5,1970-01-01 00:11:00+00:00,1970-01-01 00:11:30+00:00,30,10800,10800,1.0,0.0,0.1486248726733957,-0.2152171296296296,0.19067742872522536,-0.595,1.0,0.135,0.065,1.595
mitdb,5_23,5,102,0,,v5,1970-01-01 00:11:30+00:00,1970-01-01 00:12:00+00:00,30,10800,10800,1.0,0.0,0.15260672284470783,-0.3005347222222222,0.18668141978695174,-0.71,0.88,0.14,0.06999999999999995,1.5899999999999999
mitdb,5_24,5,102,0,,v5,1970-01-01 00:12:00+00:00,1970-01-01 00:12:30+00:00,30,10800,10800,1.0,0.0,0.15945920918603573,-0.2808069444444445,0.19024961366453877,-0.73,0.925,0.15500000000000003,0.07500000000000001,1.655
mitdb,5_25,5,102,0,,v5,1970-01-01 00:12:30+00:00,1970-01-01 00:13:00+00:00,30,10800,10800,1.0,0.0,0.1564959718492453,-0.2452287037037037,0.19117817804089995,-0.76,0.975,0.13499999999999998,0.06999999999999998,1.7349999999999999
mitdb,5_26,5,102,0,,v5,1970-01-01 00:13:00+00:00,1970-01-01 00:13:30+00:00,30,10800,10800,1.0,0.0,0.14538383183628115,-0.23915277777777777,0.1912689670416687,-0.67,1.015,0.14,0.07000000000000003,1.685
mitdb,5_27,5,102,0,,v5,1970-01-01 00:13:30+00:00,1970-01-01 00:14:00+00:00,30,10800,10800,1.0,0.0,0.15029169367534032,-0.1887675925925926,0.18939118239803956,-0.65,1.0,0.15,0.07499999999999998,1.65
mitdb,5_28,5,102,0,,v5,1970-01-01 00:14:00+00:00,1970-01-01 00:14:30+00:00,30,10800,10800,1.0,0.0,0.1555699601814983,-0.2562259259259259,0.206179315306505,-0.76,1.095,0.175,0.08499999999999999,1.855
mitdb,5_29,5,102,0,,v5,1970-01-01 00:14:30+00:00,1970-01-01 00:15:00+00:00,30,10800,10800,1.0,0.0,0.14927308084081858,-0.2442513888888889,0.1913266013013148,-0.685,0.98,0.145,0.07,1.665
mitdb,5_30,5,102,0,,v5,1970-01-01 00:15:00+00:00,1970-01-01 00:15:30+00:00,30,10800,10800,1.0,0.0,0.1552921566811742,-0.2277162037037037,0.18934014190948711,-0.64,1.04,0.125,0.060000000000000026,1.6800000000000002
mitdb,5_31,5,102,0,,v5,1970-01-01 00:15:30+00:00,1970-01-01 00:16:00+00:00,30,10800,10800,1.0,0.0,0.15325493101213075,-0.24437175925925927,0.19363526638802983,-0.795,1.01,0.15499999999999997,0.07999999999999996,1.8050000000000002
mitdb,5_32,5,102,0,,v5,1970-01-01 00:16:00+00:00,1970-01-01 00:16:30+00:00,30,10800,10800,1.0,0.0,0.15501435318085008,-0.23022870370370369,0.19692508083525967,-0.83,1.01,0.15999999999999998,0.08000000000000002,1.8399999999999999
mitdb,5_33,5,102,0,,v5,1970-01-01 00:16:30+00:00,1970-01-01 00:17:00+00:00,30,10800,10800,1.0,0.0,0.15732938235021762,-0.2252476851851852,0.18058684533600694,-0.63,0.96,0.125,0.065,1.5899999999999999
mitdb,5_34,5,102,0,,v5,1970-01-01 00:17:00+00:00,1970-01-01 00:17:30+00:00,30,10800,10800,1.0,0.0,0.14918047967404388,-0.2394425925925926,0.18699095344132619,-0.715,1.02,0.13000000000000003,0.06500000000000003,1.7349999999999999
mitdb,5_35,5,102,0,,v5,1970-01-01 00:17:30+00:00,1970-01-01 00:18:00+00:00,30,10800,10800,1.0,0.0,0.148532271506621,-0.2368990740740741,0.18463647733063154,-0.695,0.995,0.12500000000000003,0.060000000000000026,1.69
mitdb,5_36,5,102,0,,v5,1970-01-01 00:18:00+00:00,1970-01-01 00:18:30+00:00,30,10800,10800,1.0,0.0,0.15168071117696083,-0.24142592592592593,0.18535009301662222,-0.69,0.95,0.13500000000000004,0.065,1.64
mitdb,5_37,5,102,0,,v5,1970-01-01 00:18:30+00:00,1970-01-01 00:19:00+00:00,30,10800,10800,1.0,0.0,0.14492082600240763,-0.27706574074074075,0.1876704493208726,-0.765,0.97,0.13,0.065,1.7349999999999999
mitdb,5_38,5,102,0,,v5,1970-01-01 00:19:00+00:00,1970-01-01 00:19:30+00:00,30,10800,10800,1.0,0.0,0.15038429484211502,-0.23811064814814814,0.17950086230449813,-0.745,0.985,0.13000000000000003,0.065,1.73
mitdb,5_39,5,102,0,,v5,1970-01-01 00:19:30+00:00,1970-01-01 00:20:00+00:00,30,10800,10800,1.0,0.0,0.14760625983887396,-0.23396990740740742,0.18600169549472043,-0.705,1.045,0.13,0.065,1.75
mitdb,5_40,5,102,0,,v5,1970-01-01 00:20:00+00:00,1970-01-01 00:20:30+00:00,30,10800,10800,1.0,0.0,0.15047689600888972,-0.2384597222222222,0.1812615406863029,-0.79,0.95,0.12000000000000002,0.060000000000000026,1.74
mitdb,5_41,5,102,0,,v5,1970-01-01 00:20:30+00:00,1970-01-01 00:21:00+00:00,30,10800,10800,1.0,0.0,0.15223631817760905,-0.26916064814814816,0.18892345068093733,-0.93,0.995,0.13,0.06,1.925
mitdb,5_42,5,102,0,,v5,1970-01-01 00:21:00+00:00,1970-01-01 00:21:30+00:00,30,10800,10800,1.0,0.0,0.1495508843411427,-0.25287916666666665,0.18131681989291856,-0.745,0.945,0.13999999999999999,0.06999999999999998,1.69
mitdb,5_43,5,102,0,,v5,1970-01-01 00:21:30+00:00,1970-01-01 00:22:00+00:00,30,10800,10800,1.0,0.0,0.14612464117047874,-0.23964444444444444,0.18872721903972878,-0.745,1.03,0.13000000000000003,0.06499999999999995,1.775
mitdb,5_44,5,102,0,,v5,1970-01-01 00:22:00+00:00,1970-01-01 00:22:30+00:00,30,10800,10800,1.0,0.0,0.14825446800629688,-0.22050601851851853,0.18433821577484893,-0.705,1.02,0.11499999999999999,0.06,1.725
mitdb,5_45,5,102,0,,v5,1970-01-01 00:22:30+00:00,1970-01-01 00:23:00+00:00,30,10800,10800,1.0,0.0,0.14612464117047874,-0.23500787037037038,0.18645313657640916,-0.72,0.985,0.13,0.065,1.705
mitdb,5_46,5,102,0,,v5,1970-01-01 00:23:00+00:00,1970-01-01 00:23:30+00:00,30,10800,10800,1.0,0.0,0.14908787850726918,-0.23570231481481482,0.18899969841934874,-0.81,1.05,0.135,0.07,1.86
mitdb,5_47,5,102,0,,v5,1970-01-01 00:23:30+00:00,1970-01-01 00:24:00+00:00,30,10800,10800,1.0,0.0,0.14843967033984629,-0.24279675925925925,0.19096927912531592,-1.66,0.995,0.13000000000000003,0.06499999999999995,2.655
mitdb,5_48,5,102,0,,v5,1970-01-01 00:24:00+00:00,1970-01-01 00:24:30+00:00,30,10800,10800,1.0,0.0,0.16112603018798036,-0.26198333333333335,0.18536482474215546,-0.75,0.99,0.12,0.06,1.74
mitdb,5_49,5,102,0,,v5,1970-01-01 00:24:30+00:00,1970-01-01 00:25:00+00:00,30,10800,10800,1.0,0.0,0.1501990925085656,-0.2648152777777778,0.18188542862765636,-0.75,0.895,0.12999999999999998,0.065,1.645
mitdb,5_50,5,102,0,,v5,1970-01-01 00:25:00+00:00,1970-01-01 00:25:30+00:00,30,10800,10800,1.0,0.0,0.15223631817760905,-0.24219675925925926,0.1842607373890073,-0.735,0.93,0.13000000000000003,0.06499999999999995,1.665
mitdb,5_51,5,102,0,,v5,1970-01-01 00:25:30+00:00,1970-01-01 00:26:00+00:00,30,10800,10800,1.0,0.0,0.15316232984535605,-0.1882902777777778,0.18288589395145627,-0.715,1.03,0.12500000000000003,0.06,1.745
mitdb,5_52,5,102,0,,v5,1970-01-01 00:26:00+00:00,1970-01-01 00:26:30+00:00,30,10800,10800,1.0,0.0,0.1496434855079174,-0.2536893518518518,0.19250462495793152,-1.34,0.975,0.12999999999999998,0.06499999999999997,2.315
mitdb,5_53,5,102,0,,v5,1970-01-01 00:26:30+00:00,1970-01-01 00:27:00+00:00,30,10800,10800,1.0,0.0,0.15390313917955367,-0.2307875,0.18787104591398357,-0.71,1.0,0.135,0.06500000000000003,1.71
mitdb,5_54,5,102,0,,v5,1970-01-01 00:27:00+00:00,1970-01-01 00:27:30+00:00,30,10800,10800,1.0,0.0,0.13880914899527735,-0.22945185185185185,0.18843318690878472,-0.875,0.97,0.14,0.07,1.845
mitdb,5_55,5,102,0,,v5,1970-01-01 00:27:30+00:00,1970-01-01 00:28:00+00:00,30,10800,10800,1.0,0.0,0.14723585517177518,-0.2047425925925926,0.18507722061670293,-0.72,1.045,0.12,0.06,1.765
mitdb,5_56,5,102,0,,v5,1970-01-01 00:28:00+00:00,1970-01-01 00:28:30+00:00,30,10800,10800,1.0,0.0,0.15168071117696083,-0.24212314814814814,0.18835937515802936,-0.715,1.04,0.12000000000000002,0.06,1.755
mitdb,5_57,5,102,0,,v5,1970-01-01 00:28:30+00:00,1970-01-01 00:29:00+00:00,30,10800,10800,1.0,0.0,0.14927308084081858,-0.29203842592592594,0.18888750266041227,-0.795,0.98,0.11499999999999999,0.05499999999999999,1.775
mitdb,5_58,5,102,0,,v5,1970-01-01 00:29:00+00:00,1970-01-01 00:29:30+00:00,30,10800,10800,1.0,0.0,0.14825446800629688,-0.22510046296296296,0.18335623228345788,-0.69,1.015,0.10999999999999999,0.05499999999999999,1.7049999999999998
mitdb,5_59,5,102,0,,v5,1970-01-01 00:29:30+00:00,1970-01-01 00:30:00+00:00,30,10800,10800,1.0,0.0,0.14473562366885823,-0.2350337962962963,0.19059143760654523,-0.785,1.115,0.13,0.06500000000000003,1.9
mitdb,5_60,5,102,0,,v5,1970-01-01 00:30:00+00:00,1970-01-01 00:30:30+00:00,30,10800,2000,0.18518518518518517,0.8148148148148148,0.1500750375187594,-0.26806,0.19097806866589573,-0.68,0.835,0.11124999999999996,0.05499999999999999,1.5150000000000001
mitdb,6_0,6,102,0,,v2,1970-01-01 00:00:00+00:00,1970-01-01 00:00:30+00:00,30,10800,10800,1.0,0.0,0.0890823224372627,-0.008925,1.1975397260342269,-3.3,2.24,0.80125,0.1925,5.54
mitdb,6_1,6,102,0,,v2,1970-01-01 00:00:30+00:00,1970-01-01 00:01:00+00:00,30,10800,10800,1.0,0.0,0.09139735160663025,-0.020787037037037038,1.2267498811394115,-3.27,2.2,0.87,0.20500000000000002,5.470000000000001
mitdb,6_2,6,102,0,,v2,1970-01-01 00:01:00+00:00,1970-01-01 00:01:30+00:00,30,10800,10800,1.0,0.0,0.11806648763774423,-0.024800000000000003,0.9483178100989305,-3.315,2.17,0.325,0.16499999999999998,5.484999999999999
mitdb,6_3,6,102,0,,v2,1970-01-01 00:01:30+00:00,1970-01-01 00:02:00+00:00,30,10800,10800,1.0,0.0,0.13482729882396519,0.020922222222222224,0.665795058538804,-3.13,2.535,0.275,0.125,5.665
mitdb,6_4,6,102,0,,v2,1970-01-01 00:02:00+00:00,1970-01-01 00:02:30+00:00,30,10800,10800,1.0,0.0,0.14603204000370404,-0.0003458333333333326,0.3446367730720349,-1.845,1.725,0.29000000000000004,0.07999999999999999,3.5700000000000003
mitdb,6_5,6,102,0,,v2,1970-01-01 00:02:30+00:00,1970-01-01 00:03:00+00:00,30,10800,10800,1.0,0.0,0.13408648948976756,-0.004994444444444444,0.6056607751074948,-3.255,2.095,0.29500000000000004,0.09999999999999999,5.35
mitdb,6_6,6,102,0,,v2,1970-01-01 00:03:00+00:00,1970-01-01 00:03:30+00:00,30,10800,10800,1.0,0.0,0.08685989443466988,0.00663287037037037,1.1928210570761189,-3.215,2.14,0.87,0.195,5.355
mitdb,6_7,6,102,0,,v2,1970-01-01 00:03:30+00:00,1970-01-01 00:04:00+00:00,30,10800,10800,1.0,0.0,0.0887119177701639,-0.01829814814814815,1.2322774676168948,-3.235,2.165,0.8700000000000001,0.20500000000000002,5.4
mitdb,6_8,6,102,0,,v2,1970-01-01 00:04:00+00:00,1970-01-01 00:04:30+00:00,30,10800,10800,1.0,0.0,0.09324937494212428,-0.0009537037037037041,1.1943685179876673,-3.245,2.095,0.8550000000000001,0.21500000000000002,5.34
mitdb,6_9,6,102,0,,v2,1970-01-01 00:04:30+00:00,1970-01-01 00:05:00+00:00,30,10800,10800,1.0,0.0,0.09158255394017964,-0.020427314814814815,1.1411066885970056,-3.27,2.285,0.665,0.18,5.555
mitdb,6_10,6,102,0,,v2,1970-01-01 00:05:00+00:00,1970-01-01 00:05:30+00:00,30,10800,10800,1.0,0.0,0.09621261227891471,-0.022557407407407408,1.1165576196890565,-3.305,2.07,0.605,0.19,5.375
mitdb,6_11,6,102,0,,v2,1970-01-01 00:05:30+00:00,1970-01-01 00:06:00+00:00,30,10800,10800,1.0,0.0,0.09139735160663025,-0.02850972222222222,1.1892659089002486,-3.29,2.09,0.825,0.215,5.38
mitdb,6_12,6,102,0,,v2,1970-01-01 00:06:00+00:00,1970-01-01 00:06:30+00:00,30,10800,10800,1.0,0.0,0.08991573293823502,0.04438888888888889,1.2140127464252113,-3.175,2.145,0.88,0.20500000000000002,5.32
mitdb,6_13,6,102,0,,v2,1970-01-01 00:06:30+00:00,1970-01-01 00:07:00+00:00,30,10800,10800,1.0,0.0,0.09121214927308084,0.03140648148148148,1.1746208497688766,-3.185,2.13,0.765,0.18,5.3149999999999995
mitdb,6_14,6,102,0,,v2,1970-01-01 00:07:00+00:00,1970-01-01 00:07:30+00:00,30,10800,10800,1.0,0.0,0.08537827576627466,-0.023939351851851854,1.2507051395787383,-3.355,2.195,0.8699999999999999,0.19999999999999998,5.55
mitdb,6_15,6,102,0,,v2,1970-01-01 00:07:30+00:00,1970-01-01 00:08:00+00:00,30,10800,10800,1.0,0.0,0.09148995277340495,-0.0017611111111111113,1.2016634303649805,-3.195,2.115,0.81,0.21000000000000002,5.3100000000000005
mitdb,6_16,6,102,0,,v2,1970-01-01 00:08:00+00:00,1970-01-01 00:08:30+00:00,30,10800,10800,1.0,0.0,0.08389665709787944,0.03268935185185185,1.1877898382147525,-3.2,2.135,0.845,0.19,5.335
mitdb,6_17,6,102,0,,v2,1970-01-01 00:08:30+00:00,1970-01-01 00:09:00+00:00,30,10800,10800,1.0,0.0,0.09176775627372905,0.020396296296296298,1.2071579583877683,-3.335,2.18,0.825,0.185,5.515000000000001
mitdb,6_18,6,102,0,,v2,1970-01-01 00:09:00+00:00,1970-01-01 00:09:30+00:00,30,10800,10800,1.0,0.0,0.08741550143531808,0.0005393518518518511,1.208956716960222,-3.345,2.27,0.8300000000000001,0.20500000000000002,5.615
mitdb,6_19,6,102,0,,v2,1970-01-01 00:09:30+00:00,1970-01-01 00:10:00+00:00,30,10800,10800,1.0,0.0,0.08778590610241689,-0.017619444444444445,1.184469433643881,-3.295,2.525,0.855,0.22499999999999998,5.82
mitdb,6_20,6,102,0,,v2,1970-01-01 00:10:00+00:00,1970-01-01 00:10:30+00:00,30,10800,10800,1.0,0.0,0.09167515510695434,0.016825925925925925,1.1536253060135073,-3.185,2.055,0.76,0.205,5.24
mitdb,6_21,6,102,0,,v2,1970-01-01 00:10:30+00:00,1970-01-01 00:11:00+00:00,30,10800,10800,1.0,0.0,0.09084174460598203,0.0027078703703703705,1.2237706226411893,-3.31,2.12,0.85,0.21,5.43
mitdb,6_22,6,102,0,,v2,1970-01-01 00:11:00+00:00,1970-01-01 00:11:30+00:00,30,10800,10800,1.0,0.0,0.08611908510047227,0.029988888888888888,1.1540840447221805,-3.14,2.06,0.7899999999999999,0.19,5.2
mitdb,6_23,6,102,0,,v2,1970-01-01 00:11:30+00:00,1970-01-01 00:12:00+00:00,30,10800,10800,1.0,0.0,0.08769330493564219,0.021622685185185186,1.166997078990622,-3.2,2.04,0.77,0.185,5.24
mitdb,6_24,6,102,0,,v2,1970-01-01 00:12:00+00:00,1970-01-01 00:12:30+00:00,30,10800,10800,1.0,0.0,0.0884341142698398,-0.0006634259259259258,1.1509430590332799,-3.18,2.0,0.765,0.19,5.18
mitdb,6_25,6,102,0,,v2,1970-01-01 00:12:30+00:00,1970-01-01 00:13:00+00:00,30,10800,10800,1.0,0.0,0.08667469210112047,-0.028931481481481478,1.1721362688101125,-3.265,2.12,0.775,0.185,5.385
mitdb,6_26,6,102,0,,v2,1970-01-01 00:13:00+00:00,1970-01-01 00:13:30+00:00,30,10800,10800,1.0,0.0,0.09074914343920733,0.023594444444444442,1.1512262277070286,-3.115,2.04,0.79625,0.20500000000000002,5.155
mitdb,6_27,6,102,0,,v2,1970-01-01 00:13:30+00:00,1970-01-01 00:14:00+00:00,30,10800,10800,1.0,0.0,0.09287897027502547,0.04558472222222222,1.149803490881474,-3.135,2.105,0.765,0.20500000000000002,5.24
mitdb,6_28,6,102,0,,v2,1970-01-01 00:14:00+00:00,1970-01-01 00:14:30+00:00,30,10800,10800,1.0,0.0,0.08898972127048801,-0.02059074074074074,1.191981712491655,-3.365,2.1,0.795,0.195,5.465
mitdb,6_29,6,102,0,,v2,1970-01-01 00:14:30+00:00,1970-01-01 00:15:00+00:00,30,10800,10800,1.0,0.0,0.09148995277340495,-0.0061606481481481495,1.1718473545874089,-3.37,2.09,0.79,0.20500000000000002,5.46
mitdb,6_30,6,102,0,,v2,1970-01-01 00:15:00+00:00,1970-01-01 00:15:30+00:00,30,10800,10800,1.0,0.0,0.09148995277340495,-0.0013861111111111114,1.1947236746448882,-3.3,2.12,0.8250000000000001,0.185,5.42
mitdb,6_31,6,102,0,,v2,1970-01-01 00:15:30+00:00,1970-01-01 00:16:00+00:00,30,10800,10800,1.0,0.0,0.09223076210760256,0.06239907407407407,1.1582934119267276,-3.175,2.105,0.7949999999999999,0.19,5.279999999999999
mitdb,6_32,6,102,0,,v2,1970-01-01 00:16:00+00:00,1970-01-01 00:16:30+00:00,30,10800,10800,1.0,0.0,0.0883415131030651,0.005822685185185183,1.1962516760898012,-3.315,2.14,0.805,0.185,5.455
mitdb,6_33,6,102,0,,v2,1970-01-01 00:16:30+00:00,1970-01-01 00:17:00+00:00,30,10800,10800,1.0,0.0,0.09343457727567367,0.035774074074074076,1.1552070774818404,-3.19,2.075,0.825,0.195,5.265000000000001
mitdb,6_34,6,102,0,,v2,1970-01-01 00:17:00+00:00,1970-01-01 00:17:30+00:00,30,10800,10800,1.0,0.0,0.09167515510695434,-0.005314814814814816,1.1717901239573987,-3.29,2.115,0.8,0.2,5.405
mitdb,6_35,6,102,0,,v2,1970-01-01 00:17:30+00:00,1970-01-01 00:18:00+00:00,30,10800,10800,1.0,0.0,0.09176775627372905,0.019612962962962964,1.1632147981974585,-3.325,2.065,0.8049999999999999,0.205,5.390000000000001
mitdb,6_36,6,102,0,,v2,1970-01-01 00:18:00+00:00,1970-01-01 00:18:30+00:00,30,10800,10800,1.0,0.0,0.09028613760533383,0.01679722222222222,1.1584357284579627,-3.325,2.08,0.775,0.18,5.405
mitdb,6_37,6,102,0,,v2,1970-01-01 00:18:30+00:00,1970-01-01 00:19:00+00:00,30,10800,10800,1.0,0.0,0.0886193166033892,0.036420370370370374,1.1857888375616146,-3.22,2.125,0.845,0.23500000000000001,5.345000000000001
mitdb,6_38,6,102,0,,v2,1970-01-01 00:19:00+00:00,1970-01-01 00:19:30+00:00,30,10800,10800,1.0,0.0,0.09065654227243264,0.011193055555555555,1.138855390865649,-3.18,2.065,0.765,0.18,5.245
mitdb,6_39,6,102,0,,v2,1970-01-01 00:19:30+00:00,1970-01-01 00:20:00+00:00,30,10800,10800,1.0,0.0,0.0879711084359663,0.048923148148148146,1.1598957581827167,-3.165,2.11,0.7849999999999999,0.2,5.275
mitdb,6_40,6,102,0,,v2,1970-01-01 00:20:00+00:00,1970-01-01 00:20:30+00:00,30,10800,10800,1.0,0.0,0.09056394110565794,0.014403240740740739,1.145201699274081,-3.19,2.045,0.785,0.19,5.234999999999999
mitdb,6_41,6,102,0,,v2,1970-01-01 00:20:30+00:00,1970-01-01 00:21:00+00:00,30,10800,10800,1.0,0.0,0.09232336327437726,0.0006226851851851854,1.2004721127900637,-3.345,2.135,0.845,0.19,5.48
mitdb,6_42,6,102,0,,v2,1970-01-01 00:21:00+00:00,1970-01-01 00:21:30+00:00,30,10800,10800,1.0,0.0,0.09176775627372905,0.0262375,1.1452900378685957,-3.22,2.1,0.795,0.215,5.32
mitdb,6_43,6,102,0,,v2,1970-01-01 00:21:30+00:00,1970-01-01 00:22:00+00:00,30,10800,10800,1.0,0.0,0.09047133993888323,0.02636296296296296,1.17176370577162,-3.255,2.185,0.795,0.185,5.4399999999999995
mitdb,6_44,6,102,0,,v2,1970-01-01 00:22:00+00:00,1970-01-01 00:22:30+00:00,30,10800,10800,1.0,0.0,0.08584128160014816,0.024046759259259257,1.1609398229315895,-3.225,2.065,0.785,0.19,5.29
mitdb,6_45,6,102,0,,v2,1970-01-01 00:22:30+00:00,1970-01-01 00:23:00+00:00,30,10800,10800,1.0,0.0,0.09315677377534957,0.03210648148148148,1.1874659937833634,-3.22,2.125,0.845,0.20500000000000002,5.345000000000001
mitdb,6_46,6,102,0,,v2,1970-01-01 00:23:00+00:00,1970-01-01 00:23:30+00:00,30,10800,10800,1.0,0.0,0.08769330493564219,0.04045787037037037,1.1653351356619586,-3.25,2.135,0.795,0.215,5.385
mitdb,6_47,6,102,0,,v2,1970-01-01 00:23:30+00:00,1970-01-01 00:24:00+00:00,30,10800,10800,1.0,0.0,0.09269376794147606,0.014112037037037038,1.1463757024126349,-3.22,2.205,0.79,0.195,5.425000000000001
mitdb,6_48,6,102,0,,v2,1970-01-01 00:24:00+00:00,1970-01-01 00:24:30+00:00,30,10800,10800,1.0,0.0,0.08565607926659875,0.029869907407407404,1.1769303177708634,-3.25,2.135,0.82,0.2,5.385
mitdb,6_49,6,102,0,,v2,1970-01-01 00:24:30+00:00,1970-01-01 00:25:00+00:00,30,10800,10800,1.0,0.0,0.09148995277340495,0.045578703703703705,1.1444128958965254,-3.15,2.145,0.765,0.185,5.295
mitdb,6_50,6,102,0,,v2,1970-01-01 00:25:00+00:00,1970-01-01 00:25:30+00:00,30,10800,10800,1.0,0.0,0.09371238077599778,0.04126898148148148,1.1654046945204317,-3.2,2.17,0.7849999999999999,0.195,5.37
mitdb,6_51,6,102,0,,v2,1970-01-01 00:25:30+00:00,1970-01-01 00:26:00+00:00,30,10800,10800,1.0,0.0,0.08445226409852764,0.01493472222222222,1.149245172705005,-3.22,2.14,0.805,0.20500000000000002,5.36
mitdb,6_52,6,102,0,,v2,1970-01-01 00:26:00+00:00,1970-01-01 00:26:30+00:00,30,10800,10800,1.0,0.0,0.09204555977405315,0.0283375,1.1214279659952495,-3.265,2.33,0.65,0.18,5.595000000000001
mitdb,6_53,6,102,0,,v2,1970-01-01 00:26:30+00:00,1970-01-01 00:27:00+00:00,30,10800,10800,1.0,0.0,0.09371238077599778,0.005272685185185185,1.1516690269106569,-3.215,2.125,0.755,0.18000000000000002,5.34
mitdb,6_54,6,102,0,,v2,1970-01-01 00:27:00+00:00,1970-01-01 00:27:30+00:00,30,10800,10800,1.0,0.0,0.08880451893693861,0.04619074074074074,1.1381346596424362,-3.235,2.145,0.7762499999999999,0.185,5.38
mitdb,6_55,6,102,0,,v2,1970-01-01 00:27:30+00:00,1970-01-01 00:28:00+00:00,30,10800,10800,1.0,0.0,0.09148995277340495,-0.005917129629629629,1.1727622056188356,-3.365,2.145,0.745,0.185,5.51
mitdb,6_56,6,102,0,,v2,1970-01-01 00:28:00+00:00,1970-01-01 00:28:30+00:00,30,10800,10800,1.0,0.0,0.09565700527826651,0.017918055555555555,1.0745065028629646,-3.28,2.065,0.585,0.18000000000000002,5.345
mitdb,6_57,6,102,0,,v2,1970-01-01 00:28:30+00:00,1970-01-01 00:29:00+00:00,30,10800,10800,1.0,0.0,0.09399018427632189,0.03421990740740741,1.130484364300358,-3.285,2.135,0.69,0.175,5.42
mitdb,6_58,6,102,0,,v2,1970-01-01 00:29:00+00:00,1970-01-01 00:29:30+00:00,30,10800,10800,1.0,0.0,0.09334197610889897,0.03355925925925926,1.088808356675264,-3.14,2.075,0.6649999999999999,0.175,5.215
mitdb,6_59,6,102,0,,v2,1970-01-01 00:29:30+00:00,1970-01-01 00:30:00+00:00,30,10800,10800,1.0,0.0,0.08982313177146033,0.007601851851851851,1.158906756660232,-3.35,2.115,0.725,0.19,5.465
mitdb,6_60,6,102,0,,v2,1970-01-01 00:30:00+00:00,1970-01-01 00:30:30+00:00,30,10800,2000,0.18518518518518517,0.8148148148148148,0.09304652326163082,0.015305,1.0716100764984549,-3.095,1.98,0.6000000000000001,0.175,5.075
mitdb,7_0,7,103,0,,mlii,1970-01-01 00:00:00+00:00,1970-01-01 00:00:30+00:00,30,10800,10800,1.0,0.0,0.14112417816464487,-0.2392449074074074,0.31779339168998594,-0.76,1.99,0.165,0.08499999999999999,2.75
mitdb,7_1,7,103,0,,mlii,1970-01-01 00:00:30+00:00,1970-01-01 00:01:00+00:00,30,10800,10800,1.0,0.0,0.14056857116399665,-0.19184953703703703,0.32520743954983167,-0.63,2.045,0.15500000000000003,0.07500000000000001,2.675
mitdb,7_2,7,103,0,,mlii,1970-01-01 00:01:00+00:00,1970-01-01 00:01:30+00:00,30,10800,10800,1.0,0.0,0.14510602833595704,-0.24257407407407408,0.3107857691542536,-0.66,1.91,0.14500000000000002,0.07499999999999998,2.57
mitdb,7_3,7,103,0,,mlii,1970-01-01 00:01:30+00:00,1970-01-01 00:02:00+00:00,30,10800,10800,1.0,0.0,0.14473562366885823,-0.21366435185185184,0.3177382477165643,-0.675,1.955,0.15499999999999997,0.07500000000000004,2.63
mitdb,7_4,7,103,0,,mlii,1970-01-01 00:02:00+00:00,1970-01-01 00:02:30+00:00,30,10800,10800,1.0,0.0,0.13862394666172795,-0.24746296296296297,0.322891449778623,-0.67,1.965,0.15500000000000003,0.07999999999999999,2.6350000000000002
mitdb,7_5,7,103,0,,mlii,1970-01-01 00:02:30+00:00,1970-01-01 00:03:00+00:00,30,10800,10800,1.0,0.0,0.14121677933141957,-0.2179648148148148,0.32211338779774307,-0.695,2.015,0.16499999999999998,0.08499999999999996,2.71
mitdb,7_6,7,103,0,,mlii,1970-01-01 00:03:00+00:00,1970-01-01 00:03:30+00:00,30,10800,10800,1.0,0.0,0.13445689415686637,-0.23053703703703704,0.3275372562692547,-0.645,2.12,0.145,0.07,2.765
mitdb,7_7,7,103,0,,mlii,1970-01-01 00:03:30+00:00,1970-01-01 00:04:00+00:00,30,10800,10800,1.0,0.0,0.13325307898879526,-0.22364490740740742,0.3192949977736688,-0.665,1.97,0.16,0.07999999999999999,2.635
mitdb,7_8,7,103,0,,mlii,1970-01-01 00:04:00+00:00,1970-01-01 00:04:30+00:00,30,10800,10800,1.0,0.0,0.1429762015001389,-0.2587175925925926,0.32966258227943346,-0.77,2.02,0.17999999999999997,0.08999999999999997,2.79
mitdb,7_9,7,103,0,,mlii,1970-01-01 00:04:30+00:00,1970-01-01 00:05:00+00:00,30,10800,10800,1.0,0.0,0.13843874432817854,-0.16933518518518517,0.3121570812838475,-0.685,2.11,0.175,0.08500000000000002,2.795
mitdb,7_10,7,103,0,,mlii,1970-01-01 00:05:00+00:00,1970-01-01 00:05:30+00:00,30,10800,10800,1.0,0.0,0.14779146217242337,-0.24023194444444446,0.3130345701269444,-0.72,1.96,0.17,0.08499999999999999,2.6799999999999997
mitdb,7_11,7,103,0,,mlii,1970-01-01 00:05:30+00:00,1970-01-01 00:06:00+00:00,30,10800,10800,1.0,0.0,0.1426983979998148,-0.2622550925925926,0.3159437761588,-0.72,1.955,0.17000000000000004,0.08500000000000002,2.675
mitdb,7_12,7,103,0,,mlii,1970-01-01 00:06:00+00:00,1970-01-01 00:06:30+00:00,30,10800,10800,1.0,0.0,0.13992036299657376,-0.25540555555555555,0.31149636667120634,-0.75,1.985,0.14,0.07,2.7350000000000003
mitdb,7_13,7,103,0,,mlii,1970-01-01 00:06:30+00:00,1970-01-01 00:07:00+00:00,30,10800,10800,1.0,0.0,0.14353180850078712,-0.25219722222222224,0.31737806622643067,-0.755,1.925,0.165,0.08499999999999999,2.68
mitdb,7_14,7,103,0,,mlii,1970-01-01 00:07:00+00:00,1970-01-01 00:07:30+00:00,30,10800,10800,1.0,0.0,0.13797573849430503,-0.18767546296296297,0.30682336094490686,-0.665,2.01,0.14500000000000002,0.07,2.675
mitdb,7_15,7,103,0,,mlii,1970-01-01 00:07:30+00:00,1970-01-01 00:08:00+00:00,30,10800,10800,1.0,0.0,0.13834614316140384,-0.25202268518518517,0.3055865296274402,-0.65,1.915,0.135,0.07,2.565
mitdb,7_16,7,103,0,,mlii,1970-01-01 00:08:00+00:00,1970-01-01 00:08:30+00:00,30,10800,10800,1.0,0.0,0.135197703491064,-0.22739166666666666,0.33196456801732327,-0.67,2.07,0.145,0.07499999999999998,2.7399999999999998
mitdb,7_17,7,103,0,,mlii,1970-01-01 00:08:30+00:00,1970-01-01 00:09:00+00:00,30,10800,10800,1.0,0.0,0.1428836003333642,-0.25188055555555555,0.3104323857590197,-0.7,1.92,0.165,0.08000000000000002,2.62
mitdb,7_18,7,103,0,,mlii,1970-01-01 00:09:00+00:00,1970-01-01 00:09:30+00:00,30,10800,10800,1.0,0.0,0.1421427909991666,-0.2674300925925926,0.3115113898051286,-0.705,1.93,0.15000000000000002,0.07500000000000001,2.635
mitdb,7_19,7,103,0,,mlii,1970-01-01 00:09:30+00:00,1970-01-01 00:10:00+00:00,30,10800,10800,1.0,0.0,0.13445689415686637,-0.20901203703703702,0.327782264514694,-0.655,2.07,0.15,0.07500000000000001,2.7249999999999996
mitdb,7_20,7,103,0,,mlii,1970-01-01 00:10:00+00:00,1970-01-01 00:10:30+00:00,30,10800,10800,1.0,0.0,0.14158718399851838,-0.18225555555555556,0.31133949508354414,-0.58,2.025,0.14500000000000002,0.07,2.605
mitdb,7_21,7,103,0,,mlii,1970-01-01 00:10:30+00:00,1970-01-01 00:11:00+00:00,30,10800,10800,1.0,0.0,0.135197703491064,-0.22926898148148148,0.31876566267349943,-0.68,2.005,0.155,0.07999999999999999,2.685
mitdb,7_22,7,103,0,,mlii,1970-01-01 00:11:00+00:00,1970-01-01 00:11:30+00:00,30,10800,10800,1.0,0.0,0.13936475599592554,-0.19389490740740742,0.3061849681451079,-0.615,2.02,0.14500000000000002,0.07,2.635
mitdb,7_23,7,103,0,,mlii,1970-01-01 00:11:30+00:00,1970-01-01 00:12:00+00:00,30,10800,10800,1.0,0.0,0.13880914899527735,-0.22930324074074074,0.30884710475092125,-0.615,1.99,0.13999999999999999,0.07,2.605
mitdb,7_24,7,103,0,,mlii,1970-01-01 00:12:00+00:00,1970-01-01 00:12:30+00:00,30,10800,10800,1.0,0.0,0.14834706917307158,-0.2473824074074074,0.3127139624083911,-0.675,1.955,0.165,0.08000000000000002,2.63
mitdb,7_25,7,103,0,,mlii,1970-01-01 00:12:30+00:00,1970-01-01 00:13:00+00:00,30,10800,10800,1.0,0.0,0.14455042133530882,-0.2706384259259259,0.3161653463891344,-0.665,1.91,0.13999999999999996,0.07,2.575
mitdb,7_26,7,103,0,,mlii,1970-01-01 00:13:00+00:00,1970-01-01 00:13:30+00:00,30,10800,10800,1.0,0.0,0.14390221316788593,-0.20205462962962964,0.3071666002123291,-0.61,1.985,0.14500000000000002,0.07500000000000001,2.595
mitdb,7_27,7,103,0,,mlii,1970-01-01 00:13:30+00:00,1970-01-01 00:14:00+00:00,30,10800,10800,1.0,0.0,0.14121677933141957,-0.24852083333333333,0.31375316677790416,-0.685,1.97,0.165,0.08000000000000002,2.6550000000000002
mitdb,7_28,7,103,0,,mlii,1970-01-01 00:14:00+00:00,1970-01-01 00:14:30+00:00,30,10800,10800,1.0,0.0,0.1371423279933327,-0.19422037037037038,0.3131150579197889,-0.68,1.975,0.165,0.08000000000000002,2.6550000000000002
mitdb,7_29,7,103,0,,mlii,1970-01-01 00:14:30+00:00,1970-01-01 00:15:00+00:00,30,10800,10800,1.0,0.0,0.14418001666821,-0.2519486111111111,0.3121764503739612,-0.745,1.975,0.16,0.07999999999999999,2.72
mitdb,7_30,7,103,0,,mlii,1970-01-01 00:15:00+00:00,1970-01-01 00:15:30+00:00,30,10800,10800,1.0,0.0,0.14677284933790166,-0.23337314814814814,0.3125727793703002,-0.7,1.985,0.16999999999999998,0.08499999999999999,2.685
mitdb,7_31,7,103,0,,mlii,1970-01-01 00:15:30+00:00,1970-01-01 00:16:00+00:00,30,10800,10800,1.0,0.0,0.1419575886656172,-0.23803935185185182,0.3311639444938716,-0.8,2.16,0.22000000000000003,0.10999999999999999,2.96
mitdb,7_32,7,103,0,,mlii,1970-01-01 00:16:00+00:00,1970-01-01 00:16:30+00:00,30,10800,10800,1.0,0.0,0.14640244467080285,-0.28227268518518517,0.33466719152117025,-0.85,2.03,0.23,0.11500000000000002,2.88
mitdb,7_33,7,103,0,,mlii,1970-01-01 00:16:30+00:00,1970-01-01 00:17:00+00:00,30,10800,10800,1.0,0.0,0.1428836003333642,-0.21186527777777778,0.3100795071697908,-0.64,2.065,0.14999999999999997,0.07500000000000001,2.705
mitdb,7_34,7,103,0,,mlii,1970-01-01 00:17:00+00:00,1970-01-01 00:17:30+00:00,30,10800,10800,1.0,0.0,0.1440874155014353,-0.22889861111111112,0.3122214990467548,-0.75,1.955,0.17,0.08500000000000002,2.705
mitdb,7_35,7,103,0,,mlii,1970-01-01 00:17:30+00:00,1970-01-01 00:18:00+00:00,30,10800,10800,1.0,0.0,0.13908695249560143,-0.24271898148148147,0.3316317348601152,-0.82,2.16,0.235,0.12,2.98
mitdb,7_36,7,103,0,,mlii,1970-01-01 00:18:00+00:00,1970-01-01 00:18:30+00:00,30,10800,10800,1.0,0.0,0.13834614316140384,-0.14931990740740742,0.6511447554266799,-2.61,3.125,0.585,0.265,5.734999999999999
mitdb,7_37,7,103,0,,mlii,1970-01-01 00:18:30+00:00,1970-01-01 00:19:00+00:00,30,10800,10800,1.0,0.0,0.15186591351051024,-0.30800833333333333,0.3774314156147,-1.235,2.115,0.4049999999999999,0.18,3.3500000000000005
mitdb,7_38,7,103,0,,mlii,1970-01-01 00:19:00+00:00,1970-01-01 00:19:30+00:00,30,10800,10800,1.0,0.0,0.13704972682655803,-0.19157175925925926,0.39306776541555294,-1.295,2.53,0.3,0.14500000000000002,3.8249999999999997
mitdb,7_39,7,103,0,,mlii,1970-01-01 00:19:30+00:00,1970-01-01 00:20:00+00:00,30,10800,10800,1.0,0.0,0.14149458283174368,-0.29368796296296296,0.33431048054340934,-0.81,2.11,0.22500000000000003,0.11000000000000004,2.92
mitdb,7_40,7,103,0,,mlii,1970-01-01 00:20:00+00:00,1970-01-01 00:20:30+00:00,30,10800,10800,1.0,0.0,0.12121492730808409,-0.2141898148148148,0.4236300768054877,-1.51,2.445,0.32,0.15500000000000003,3.955
mitdb,7_41,7,103,0,,mlii,1970-01-01 00:20:30+00:00,1970-01-01 00:21:00+00:00,30,10800,10800,1.0,0.0,0.14510602833595704,-0.28084444444444445,0.282724891152019,-0.835,1.845,0.16499999999999998,0.08499999999999996,2.6799999999999997
mitdb,7_42,7,103,0,,mlii,1970-01-01 00:21:00+00:00,1970-01-01 00:21:30+00:00,30,10800,10800,1.0,0.0,0.1349198999907399,-0.2351625,0.29384005818741393,-0.765,1.875,0.165,0.08000000000000002,2.64
mitdb,7_43,7,103,0,,mlii,1970-01-01 00:21:30+00:00,1970-01-01 00:22:00+00:00,30,10800,10800,1.0,0.0,0.1426983979998148,-0.21094259259259257,0.2818266689991299,-0.77,1.825,0.16000000000000003,0.07999999999999996,2.5949999999999998
mitdb,7_44,7,103,0,,mlii,1970-01-01 00:22:00+00:00,1970-01-01 00:22:30+00:00,30,10800,10800,1.0,0.0,0.13936475599592554,-0.21349675925925926,0.30499452659749327,-1.025,1.77,0.22,0.10999999999999999,2.795
mitdb,7_45,7,103,0,,mlii,1970-01-01 00:22:30+00:00,1970-01-01 00:23:00+00:00,30,10800,10800,1.0,0.0,0.13945735716270025,-0.25577592592592596,0.29903180460119383,-1.025,1.88,0.19500000000000003,0.09999999999999998,2.905
mitdb,7_46,7,103,0,,mlii,1970-01-01 00:23:00+00:00,1970-01-01 00:23:30+00:00,30,10800,10800,1.0,0.0,0.14029076766367257,-0.20649074074074072,0.29170945614392535,-0.865,1.92,0.22999999999999998,0.10999999999999999,2.785
mitdb,7_47,7,103,0,,mlii,1970-01-01 00:23:30+00:00,1970-01-01 00:24:00+00:00,30,10800,10800,1.0,0.0,0.14714325400500047,-0.2515018518518518,0.27695946629976237,-0.745,1.79,0.16,0.07500000000000001,2.535
mitdb,7_48,7,103,0,,mlii,1970-01-01 00:24:00+00:00,1970-01-01 00:24:30+00:00,30,10800,10800,1.0,0.0,0.1417723863320678,-0.26867037037037034,0.27998181924070664,-0.84,1.74,0.15500000000000003,0.08000000000000002,2.58
mitdb,7_49,7,103,0,,mlii,1970-01-01 00:24:30+00:00,1970-01-01 00:25:00+00:00,30,10800,10800,1.0,0.0,0.14343920733401241,-0.2245560185185185,0.28901910710787343,-0.795,1.865,0.145,0.07499999999999998,2.66
mitdb,7_50,7,103,0,,mlii,1970-01-01 00:25:00+00:00,1970-01-01 00:25:30+00:00,30,10800,10800,1.0,0.0,0.14343920733401241,-0.19146805555555554,0.2757816592253147,-0.705,1.785,0.125,0.065,2.4899999999999998
mitdb,7_51,7,103,0,,mlii,1970-01-01 00:25:30+00:00,1970-01-01 00:26:00+00:00,30,10800,10800,1.0,0.0,0.14149458283174368,-0.21829212962962963,0.277678059062593,-0.74,1.745,0.14,0.06999999999999995,2.4850000000000003
mitdb,7_52,7,103,0,,mlii,1970-01-01 00:26:00+00:00,1970-01-01 00:26:30+00:00,30,10800,10800,1.0,0.0,0.1427909991665895,-0.23873101851851852,0.27944732565611163,-0.785,1.75,0.15,0.07499999999999998,2.535
mitdb,7_53,7,103,0,,mlii,1970-01-01 00:26:30+00:00,1970-01-01 00:27:00+00:00,30,10800,10800,1.0,0.0,0.14436521900175942,-0.25695138888888885,0.280317565849495,-0.78,1.695,0.135,0.07,2.475
mitdb,7_54,7,103,0,,mlii,1970-01-01 00:27:00+00:00,1970-01-01 00:27:30+00:00,30,10800,10800,1.0,0.0,0.14436521900175942,-0.21230601851851855,0.2735408034055806,-0.7,1.75,0.14,0.07,2.45
mitdb,7_55,7,103,0,,mlii,1970-01-01 00:27:30+00:00,1970-01-01 00:28:00+00:00,30,10800,10800,1.0,0.0,0.1433466061672377,-0.17931712962962962,0.27886253801133415,-0.695,1.82,0.145,0.07499999999999998,2.515
mitdb,7_56,7,103,0,,mlii,1970-01-01 00:28:00+00:00,1970-01-01 00:28:30+00:00,30,10800,10800,1.0,0.0,0.13834614316140384,-0.24783194444444445,0.27652351973441347,-0.755,1.78,0.13999999999999999,0.06999999999999998,2.535
mitdb,7_57,7,103,0,,mlii,1970-01-01 00:28:30+00:00,1970-01-01 00:29:00+00:00,30,10800,10800,1.0,0.0,0.14732845633854988,-0.2531564814814815,0.28479281821202623,-0.75,1.91,0.14,0.07,2.66
mitdb,7_58,7,103,0,,mlii,1970-01-01 00:29:00+00:00,1970-01-01 00:29:30+00:00,30,10800,10800,1.0,0.0,0.14149458283174368,-0.22053101851851853,0.2827969602306505,-0.725,1.87,0.13499999999999998,0.06999999999999995,2.595
mitdb,7_59,7,103,0,,mlii,1970-01-01 00:29:30+00:00,1970-01-01 00:30:00+00:00,30,10800,10800,1.0,0.0,0.14723585517177518,-0.2387550925925926,0.28592702408180776,-0.76,1.785,0.13999999999999999,0.07,2.545
mitdb,7_60,7,103,0,,mlii,1970-01-01 00:30:00+00:00,1970-01-01 00:30:30+00:00,30,10800,2000,0.18518518518518517,0.8148148148148148,0.1325662831415708,-0.21582749999999998,0.272216694396402,-0.705,1.74,0.15000000000000002,0.07500000000000001,2.445
mitdb,8_0,8,103,0,,v2,1970-01-01 00:00:00+00:00,1970-01-01 00:00:30+00:00,30,10800,10800,1.0,0.0,0.14630984350402815,0.00714212962962963,0.23168321162774216,-0.685,1.715,0.16,0.08,2.4000000000000004
mitdb,8_1,8,103,0,,v2,1970-01-01 00:00:30+00:00,1970-01-01 00:01:00+00:00,30,10800,10800,1.0,0.0,0.15029169367534032,0.018497685185185186,0.21142040541737644,-0.61,1.49,0.125,0.06,2.1
mitdb,8_2,8,103,0,,v2,1970-01-01 00:01:00+00:00,1970-01-01 00:01:30+00:00,30,10800,10800,1.0,0.0,0.14658764700435226,0.024981944444444446,0.2052111115050414,-0.575,1.49,0.12000000000000001,0.06,2.065
mitdb,8_3,8,103,0,,v2,1970-01-01 00:01:30+00:00,1970-01-01 00:02:00+00:00,30,10800,10800,1.0,0.0,0.15232891934438375,0.0463537037037037,0.21961374742983875,-0.65,1.69,0.15000000000000002,0.065,2.34
mitdb,8_4,8,103,0,,v2,1970-01-01 00:02:00+00:00,1970-01-01 00:02:30+00:00,30,10800,10800,1.0,0.0,0.1497360866746921,0.040589814814814815,0.21322942557766678,-0.635,1.55,0.15000000000000002,0.06999999999999999,2.185
mitdb,8_5,8,103,0,,v2,1970-01-01 00:02:30+00:00,1970-01-01 00:03:00+00:00,30,10800,10800,1.0,0.0,0.15399574034632837,0.04538518518518519,0.2209893126094226,-0.63,1.595,0.17,0.085,2.225
mitdb,8_6,8,103,0,,v2,1970-01-01 00:03:00+00:00,1970-01-01 00:03:30+00:00,30,10800,10800,1.0,0.0,0.14843967033984629,0.04820833333333333,0.21459151133644816,-0.56,1.685,0.13,0.06,2.245
mitdb,8_7,8,103,0,,v2,1970-01-01 00:03:30+00:00,1970-01-01 00:04:00+00:00,30,10800,10800,1.0,0.0,0.1496434855079174,0.029531944444444444,0.21041808794919437,-0.625,1.455,0.13,0.06,2.08
mitdb,8_8,8,103,0,,v2,1970-01-01 00:04:00+00:00,1970-01-01 00:04:30+00:00,30,10800,10800,1.0,0.0,0.1489952773404945,0.02557962962962963,0.2177340438582109,-0.725,1.535,0.14500000000000002,0.07,2.26
mitdb,8_9,8,103,0,,v2,1970-01-01 00:04:30+00:00,1970-01-01 00:05:00+00:00,30,10800,10800,1.0,0.0,0.15427354384665246,0.08668842592592593,0.21044218711405735,-0.505,1.58,0.135,0.065,2.085
mitdb,8_10,8,103,0,,v2,1970-01-01 00:05:00+00:00,1970-01-01 00:05:30+00:00,30,10800,10800,1.0,0.0,0.1421427909991666,0.025825462962962963,0.20789417847369474,-0.56,1.56,0.135,0.055,2.12
mitdb,8_11,8,103,0,,v2,1970-01-01 00:05:30+00:00,1970-01-01 00:06:00+00:00,30,10800,10800,1.0,0.0,0.14529123066950644,0.013890740740740742,0.2021470688750427,-0.59,1.455,0.12,0.05500000000000001,2.045
mitdb,8_12,8,103,0,,v2,1970-01-01 00:06:00+00:00,1970-01-01 00:06:30+00:00,30,10800,10800,1.0,0.0,0.14677284933790166,0.05445694444444445,0.2108072183348578,-0.62,1.545,0.14500000000000002,0.065,2.165
mitdb,8_13,8,103,0,,v2,1970-01-01 00:06:30+00:00,1970-01-01 00:07:00+00:00,30,10800,10800,1.0,0.0,0.14677284933790166,0.04153287037037037,0.2060860054579567,-0.675,1.475,0.135,0.065,2.1500000000000004
mitdb,8_14,8,103,0,,v2,1970-01-01 00:07:00+00:00,1970-01-01 00:07:30+00:00,30,10800,10800,1.0,0.0,0.1495508843411427,0.07400231481481481,0.20240667566132017,-0.575,1.505,0.11,0.055,2.08
mitdb,8_15,8,103,0,,v2,1970-01-01 00:07:30+00:00,1970-01-01 00:08:00+00:00,30,10800,10800,1.0,0.0,0.1417723863320678,0.04169861111111111,0.20642437073498177,-0.595,1.465,0.115,0.055,2.06
mitdb,8_16,8,103,0,,v2,1970-01-01 00:08:00+00:00,1970-01-01 00:08:30+00:00,30,10800,10800,1.0,0.0,0.14084637466432076,0.05657361111111111,0.2144210460459087,-0.63,1.6,0.14,0.07,2.23
mitdb,8_17,8,103,0,,v2,1970-01-01 00:08:30+00:00,1970-01-01 00:09:00+00:00,30,10800,10800,1.0,0.0,0.14769886100564866,0.06709490740740741,0.2070013927526306,-0.625,1.575,0.135,0.06,2.2
mitdb,8_18,8,103,0,,v2,1970-01-01 00:09:00+00:00,1970-01-01 00:09:30+00:00,30,10800,10800,1.0,0.0,0.14630984350402815,0.043554166666666665,0.20660055665339222,-0.57,1.51,0.115,0.055,2.08
mitdb,8_19,8,103,0,,v2,1970-01-01 00:09:30+00:00,1970-01-01 00:10:00+00:00,30,10800,10800,1.0,0.0,0.14538383183628115,0.07072592592592593,0.2184710206919611,-0.595,1.585,0.13,0.06,2.1799999999999997
mitdb,8_20,8,103,0,,v2,1970-01-01 00:10:00+00:00,1970-01-01 00:10:30+00:00,30,10800,10800,1.0,0.0,0.15140290767663672,0.07252824074074074,0.1943259966166852,-0.5,1.5,0.105,0.05,2.0
mitdb,8_21,8,103,0,,v2,1970-01-01 00:10:30+00:00,1970-01-01 00:11:00+00:00,30,10800,10800,1.0,0.0,0.15807019168441522,0.03623009259259259,0.20777890789082237,-0.67,1.495,0.13,0.065,2.165
mitdb,8_22,8,103,0,,v2,1970-01-01 00:11:00+00:00,1970-01-01 00:11:30+00:00,30,10800,10800,1.0,0.0,0.15029169367534032,0.04885833333333333,0.20081860281645086,-0.61,1.52,0.125,0.055,2.13
mitdb,8_23,8,103,0,,v2,1970-01-01 00:11:30+00:00,1970-01-01 00:12:00+00:00,30,10800,10800,1.0,0.0,0.1564033706824706,0.07635787037037037,0.2039273423151009,-0.55,1.545,0.125,0.060000000000000005,2.0949999999999998
mitdb,8_24,8,103,0,,v2,1970-01-01 00:12:00+00:00,1970-01-01 00:12:30+00:00,30,10800,10800,1.0,0.0,0.1508473006759885,-0.003496296296296297,0.2057463067025014,-0.65,1.46,0.14,0.065,2.11
mitdb,8_25,8,103,0,,v2,1970-01-01 00:12:30+00:00,1970-01-01 00:13:00+00:00,30,10800,10800,1.0,0.0,0.15140290767663672,0.02585833333333333,0.204791127252777,-0.635,1.44,0.125,0.05500000000000001,2.075
mitdb,8_26,8,103,0,,v2,1970-01-01 00:13:00+00:00,1970-01-01 00:13:30+00:00,30,10800,10800,1.0,0.0,0.14705065283822577,0.031893518518518515,0.20773416751870635,-0.61,1.62,0.135,0.065,2.23
mitdb,8_27,8,103,0,,v2,1970-01-01 00:13:30+00:00,1970-01-01 00:14:00+00:00,30,10800,10800,1.0,0.0,0.15232891934438375,0.03165277777777778,0.20285504952857217,-0.635,1.525,0.15500000000000003,0.07,2.16
mitdb,8_28,8,103,0,,v2,1970-01-01 00:14:00+00:00,1970-01-01 00:14:30+00:00,30,10800,10800,1.0,0.0,0.15131030650986202,0.07496851851851852,0.20175265463165765,-0.61,1.515,0.12,0.05500000000000001,2.125
mitdb,8_29,8,103,0,,v2,1970-01-01 00:14:30+00:00,1970-01-01 00:15:00+00:00,30,10800,10800,1.0,0.0,0.15186591351051024,0.038188425925925924,0.20162589912922987,-0.625,1.5,0.11499999999999999,0.055,2.125
mitdb,8_30,8,103,0,,v2,1970-01-01 00:15:00+00:00,1970-01-01 00:15:30+00:00,30,10800,10800,1.0,0.0,0.14714325400500047,0.06291018518518518,0.20214202338520257,-0.595,1.475,0.14,0.065,2.0700000000000003
mitdb,8_31,8,103,0,,v2,1970-01-01 00:15:30+00:00,1970-01-01 00:16:00+00:00,30,10800,10800,1.0,0.0,0.15612556718214649,0.08499907407407407,0.22589171591758517,-0.68,1.705,0.18,0.09000000000000001,2.3850000000000002
mitdb,8_32,8,103,0,,v2,1970-01-01 00:16:00+00:00,1970-01-01 00:16:30+00:00,30,10800,10800,1.0,0.0,0.15075469950921383,0.006498148148148148,0.219204371602353,-0.775,1.615,0.19,0.09,2.39
mitdb,8_33,8,103,0,,v2,1970-01-01 00:16:30+00:00,1970-01-01 00:17:00+00:00,30,10800,10800,1.0,0.0,0.1509399018427632,0.049497685185185186,0.19915641843022952,-0.61,1.545,0.12,0.06,2.155
mitdb,8_34,8,103,0,,v2,1970-01-01 00:17:00+00:00,1970-01-01 00:17:30+00:00,30,10800,10800,1.0,0.0,0.1566811741827947,0.05011712962962963,0.2004860463154544,-0.63,1.45,0.12,0.055,2.08
mitdb,8_35,8,103,0,,v2,1970-01-01 00:17:30+00:00,1970-01-01 00:18:00+00:00,30,10800,10800,1.0,0.0,0.1488100750069451,0.0645412037037037,0.22039328795690724,-0.705,1.55,0.185,0.09000000000000001,2.255
mitdb,8_36,8,103,0,,v2,1970-01-01 00:18:00+00:00,1970-01-01 00:18:30+00:00,30,10800,10800,1.0,0.0,0.1374201314936568,0.07488888888888888,0.2927611647879343,-1.04,2.07,0.28500000000000003,0.14,3.11
mitdb,8_37,8,103,0,,v2,1970-01-01 00:18:30+00:00,1970-01-01 00:19:00+00:00,30,10800,10800,1.0,0.0,0.15140290767663672,0.057373148148148145,0.33704579533894075,-1.38,1.36,0.36,0.185,2.74
mitdb,8_38,8,103,0,,v2,1970-01-01 00:19:00+00:00,1970-01-01 00:19:30+00:00,30,10800,10800,1.0,0.0,0.12102972497453468,-0.03781944444444444,1.8773011942307578,-4.46,4.425,1.355,0.6799999999999999,8.885
mitdb,8_39,8,103,0,,v2,1970-01-01 00:19:30+00:00,1970-01-01 00:20:00+00:00,30,10800,10800,1.0,0.0,0.09204555977405315,0.13706898148148147,2.492384752069444,-5.12,5.115,4.08,2.04,10.235
mitdb,8_40,8,103,0,,v2,1970-01-01 00:20:00+00:00,1970-01-01 00:20:30+00:00,30,10800,10800,1.0,0.0,0.12704880081489026,-0.0006560185185185189,0.7481635557108963,-3.775,3.57,0.8262499999999999,0.365,7.345
mitdb,8_41,8,103,0,,v2,1970-01-01 00:20:30+00:00,1970-01-01 00:21:00+00:00,30,10800,10800,1.0,0.0,0.10084267061764979,0.06211898148148148,1.1441970040848537,-3.495,3.57,0.9299999999999999,0.465,7.0649999999999995
mitdb,8_42,8,103,0,,v2,1970-01-01 00:21:00+00:00,1970-01-01 00:21:30+00:00,30,10800,10800,1.0,0.0,0.14029076766367257,0.017035185185185184,0.5101623999153596,-3.11,1.87,0.31,0.14500000000000002,4.98
mitdb,8_43,8,103,0,,v2,1970-01-01 00:21:30+00:00,1970-01-01 00:22:00+00:00,30,10800,10800,1.0,0.0,0.14723585517177518,0.05736157407407407,0.29990024316878094,-1.18,1.39,0.22,0.11,2.57
mitdb,8_44,8,103,0,,v2,1970-01-01 00:22:00+00:00,1970-01-01 00:22:30+00:00,30,10800,10800,1.0,0.0,0.10991758496157052,0.06989537037037037,1.4047893151244475,-3.47,4.965,1.165,0.5499999999999999,8.435
mitdb,8_45,8,103,0,,v2,1970-01-01 00:22:30+00:00,1970-01-01 00:23:00+00:00,30,10800,10800,1.0,0.0,0.1026946939531438,0.02989259259259259,2.553712164949311,-5.12,5.115,4.359999999999999,1.975,10.235
mitdb,8_46,8,103,0,,v2,1970-01-01 00:23:00+00:00,1970-01-01 00:23:30+00:00,30,10800,10800,1.0,0.0,0.0959348087785906,0.01966851851851852,1.7258251484794207,-3.985,3.84,2.92,1.4575,7.824999999999999
mitdb,8_47,8,103,0,,v2,1970-01-01 00:23:30+00:00,1970-01-01 00:24:00+00:00,30,10800,10800,1.0,0.0,0.11325122696545976,0.07243101851851852,1.1520508412034387,-2.455,2.37,2.0949999999999998,0.795,4.825
mitdb,8_48,8,103,0,,v2,1970-01-01 00:24:00+00:00,1970-01-01 00:24:30+00:00,30,10800,10800,1.0,0.0,0.13371608482266878,0.0706888888888889,0.5504174622796378,-1.645,1.77,0.855,0.4149999999999999,3.415
mitdb,8_49,8,103,0,,v2,1970-01-01 00:24:30+00:00,1970-01-01 00:25:00+00:00,30,10800,10800,1.0,0.0,0.13769793499398092,0.03128796296296296,0.5072587956195713,-1.825,2.045,0.645,0.305,3.87
mitdb,8_50,8,103,0,,v2,1970-01-01 00:25:00+00:00,1970-01-01 00:25:30+00:00,30,10800,10800,1.0,0.0,0.12991943698490602,0.036036574074074075,0.5300978748123478,-1.535,1.575,0.785,0.39,3.11
mitdb,8_51,8,103,0,,v2,1970-01-01 00:25:30+00:00,1970-01-01 00:26:00+00:00,30,10800,10800,1.0,0.0,0.13843874432817854,0.08145972222222223,0.47951142608783465,-1.295,1.56,0.79,0.395,2.855
mitdb,8_52,8,103,0,,v2,1970-01-01 00:26:00+00:00,1970-01-01 00:26:30+00:00,30,10800,10800,1.0,0.0,0.13390128715621816,0.03225833333333333,0.4980037071242272,-1.34,1.67,0.815,0.35,3.01
mitdb,8_53,8,103,0,,v2,1970-01-01 00:26:30+00:00,1970-01-01 00:27:00+00:00,30,10800,10800,1.0,0.0,0.14566163533660523,0.07591990740740741,0.41624339548583056,-1.245,1.505,0.665,0.29500000000000004,2.75
mitdb,8_54,8,103,0,,v2,1970-01-01 00:27:00+00:00,1970-01-01 00:27:30+00:00,30,10800,10800,1.0,0.0,0.14723585517177518,0.06108703703703704,0.3601207777285665,-1.335,1.395,0.35000000000000003,0.175,2.73
mitdb,8_55,8,103,0,,v2,1970-01-01 00:27:30+00:00,1970-01-01 00:28:00+00:00,30,10800,10800,1.0,0.0,0.15223631817760905,0.03255787037037037,0.21308573291148508,-1.205,1.09,0.185,0.08,2.295
mitdb,8_56,8,103,0,,v2,1970-01-01 00:28:00+00:00,1970-01-01 00:28:30+00:00,30,10800,10800,1.0,0.0,0.15473654968052597,0.04570601851851852,0.16039455634711333,-0.715,0.995,0.11000000000000001,0.05499999999999999,1.71
mitdb,8_57,8,103,0,,v2,1970-01-01 00:28:30+00:00,1970-01-01 00:29:00+00:00,30,10800,10800,1.0,0.0,0.15306972867858135,0.04386018518518518,0.2136531384483149,-0.955,1.155,0.16,0.08,2.11
mitdb,8_58,8,103,0,,v2,1970-01-01 00:29:00+00:00,1970-01-01 00:29:30+00:00,30,10800,10800,1.0,0.0,0.14390221316788593,0.09480277777777778,0.2391952546380109,-1.075,1.07,0.18,0.09,2.145
mitdb,8_59,8,103,0,,v2,1970-01-01 00:29:30+00:00,1970-01-01 00:30:00+00:00,30,10800,10800,1.0,0.0,0.1501990925085656,0.04758148148148148,0.18652842627920058,-1.1,1.005,0.135,0.065,2.105
mitdb,8_60,8,103,0,,v2,1970-01-01 00:30:00+00:00,1970-01-01 00:30:30+00:00,30,10800,2000,0.18518518518518517,0.8148148148148148,0.1535767883941971,0.017357499999999998,0.15776192223031169,-0.66,0.955,0.13,0.065,1.615
mitdb,9_0,9,104,0,,v5,1970-01-01 00:00:00+00:00,1970-01-01 00:00:30+00:00,30,10800,10800,1.0,0.0,0.1303824428187795,-0.21135555555555555,0.2892905744299192,-1.155,1.72,0.255,0.12999999999999998,2.875
mitdb,9_1,9,104,0,,v5,1970-01-01 00:00:30+00:00,1970-01-01 00:01:00+00:00,30,10800,10800,1.0,0.0,0.13297527548847116,-0.22657962962962963,0.2576090768535034,-1.12,1.575,0.24000000000000002,0.12,2.6950000000000003
mitdb,9_2,9,104,0,,v5,1970-01-01 00:01:00+00:00,1970-01-01 00:01:30+00:00,30,10800,10800,1.0,0.0,0.12121492730808409,-0.2586462962962963,0.2674079567964926,-1.195,1.475,0.24,0.12,2.67
mitdb,9_3,9,104,0,,v5,1970-01-01 00:01:30+00:00,1970-01-01 00:02:00+00:00,30,10800,10800,1.0,0.0,0.12445596814519863,-0.16660416666666666,0.2577860576610894,-1.115,1.795,0.21000000000000002,0.1,2.91
mitdb,9_4,9,104,0,,v5,1970-01-01 00:02:00+00:00,1970-01-01 00:02:30+00:00,30,10800,10800,1.0,0.0,0.04602277988702658,-0.2559490740740741,0.3552471261008336,-1.49,1.67,0.39999999999999997,0.2,3.16
mitdb,9_5,9,104,0,,v5,1970-01-01 00:02:30+00:00,1970-01-01 00:03:00+00:00,30,10800,10800,1.0,0.0,0.07241411241781646,-0.24912037037037038,0.2982516799466996,-1.29,1.535,0.33999999999999997,0.16500000000000004,2.825
mitdb,9_6,9,104,0,,v5,1970-01-01 00:03:00+00:00,1970-01-01 00:03:30+00:00,30,10800,10800,1.0,0.0,0.08334105009723122,-0.22484629629629632,0.275304509424928,-1.145,1.975,0.22499999999999998,0.11000000000000001,3.12
mitdb,9_7,9,104,0,,v5,1970-01-01 00:03:30+00:00,1970-01-01 00:04:00+00:00,30,10800,10800,1.0,0.0,0.11612186313547551,-0.24110925925925927,0.2885614349467042,-1.245,1.815,0.25,0.12499999999999999,3.06
mitdb,9_8,9,104,0,,v5,1970-01-01 00:04:00+00:00,1970-01-01 00:04:30+00:00,30,10800,10800,1.0,0.0,0.08028521159366608,-0.2492222222222222,0.32359733378890315,-1.525,1.92,0.25,0.125,3.445
mitdb,9_9,9,104,0,,v5,1970-01-01 00:04:30+00:00,1970-01-01 00:05:00+00:00,30,10800,10800,1.0,0.0,0.08371145476433003,-0.20383564814814817,0.31884212446145227,-1.935,1.34,0.305,0.15000000000000002,3.2750000000000004
mitdb,9_10,9,104,0,,v5,1970-01-01 00:05:00+00:00,1970-01-01 00:05:30+00:00,30,10800,10800,1.0,0.0,0.03426243170663951,-0.21746574074074074,0.34066806534486993,-1.56,1.73,0.33,0.16499999999999998,3.29
mitdb,9_11,9,104,0,,v5,1970-01-01 00:05:30+00:00,1970-01-01 00:06:00+00:00,30,10800,10800,1.0,0.0,0.12380775997777572,-0.22498472222222224,0.26290770682769227,-1.165,1.435,0.27999999999999997,0.135,2.6
mitdb,9_12,9,104,0,,v5,1970-01-01 00:06:00+00:00,1970-01-01 00:06:30+00:00,30,10800,10800,1.0,0.0,0.12177053430873229,-0.18955555555555556,0.29055524575363284,-1.095,1.94,0.255,0.13,3.035
mitdb,9_13,9,104,0,,v5,1970-01-01 00:06:30+00:00,1970-01-01 00:07:00+00:00,30,10800,10800,1.0,0.0,0.14677284933790166,-0.27792546296296294,0.25117493974578764,-1.06,1.83,0.17500000000000002,0.08500000000000002,2.89
mitdb,9_14,9,104,0,,v5,1970-01-01 00:07:00+00:00,1970-01-01 00:07:30+00:00,30,10800,10800,1.0,0.0,0.14556903416983055,-0.21534351851851852,0.2686839266924027,-1.045,1.88,0.21500000000000002,0.10500000000000001,2.925
mitdb,9_15,9,104,0,,v5,1970-01-01 00:07:30+00:00,1970-01-01 00:08:00+00:00,30,10800,10800,1.0,0.0,0.14649504583757755,-0.25924583333333334,0.2738395414875801,-1.07,1.745,0.23,0.11000000000000004,2.8150000000000004
mitdb,9_16,9,104,0,,v5,1970-01-01 00:08:00+00:00,1970-01-01 00:08:30+00:00,30,10800,10800,1.0,0.0,0.1422353921659413,-0.2045074074074074,0.27768057786793027,-1.08,1.66,0.285,0.13999999999999999,2.74
mitdb,9_17,9,104,0,,v5,1970-01-01 00:08:30+00:00,1970-01-01 00:09:00+00:00,30,10800,10800,1.0,0.0,0.1495508843411427,-0.24298564814814813,0.2527275787770193,-0.97,1.75,0.22,0.10999999999999999,2.7199999999999998
mitdb,9_18,9,104,0,,v5,1970-01-01 00:09:00+00:00,1970-01-01 00:09:30+00:00,30,10800,10800,1.0,0.0,0.14529123066950644,-0.18013518518518518,0.2513952642915098,-0.97,1.785,0.20999999999999996,0.10500000000000001,2.755
mitdb,9_19,9,104,0,,v5,1970-01-01 00:09:30+00:00,1970-01-01 00:10:00+00:00,30,10800,10800,1.0,0.0,0.1431614038336883,-0.25662824074074075,0.23328069094010842,-1.01,1.335,0.19499999999999998,0.09500000000000003,2.3449999999999998
mitdb,9_20,9,104,0,,v5,1970-01-01 00:10:00+00:00,1970-01-01 00:10:30+00:00,30,10800,10800,1.0,0.0,0.15047689600888972,-0.2119185185185185,0.2352309900838596,-0.98,1.425,0.18,0.085,2.4050000000000002
mitdb,9_21,9,104,0,,v5,1970-01-01 00:10:30+00:00,1970-01-01 00:11:00+00:00,30,10800,10800,1.0,0.0,0.14538383183628115,-0.18940046296296298,0.23574531511217978,-0.915,1.855,0.17500000000000002,0.08499999999999999,2.77
mitdb,9_22,9,104,0,,v5,1970-01-01 00:11:00+00:00,1970-01-01 00:11:30+00:00,30,10800,10800,1.0,0.0,0.14806926567274747,-0.22350324074074074,0.2313940488471777,-1.065,1.85,0.185,0.08500000000000002,2.915
mitdb,9_23,9,104,0,,v5,1970-01-01 00:11:30+00:00,1970-01-01 00:12:00+00:00,30,10800,10800,1.0,0.0,0.14464302250208352,-0.21066898148148147,0.22432895098225766,-0.995,1.76,0.16999999999999998,0.07999999999999999,2.755
mitdb,9_24,9,104,0,,v5,1970-01-01 00:12:00+00:00,1970-01-01 00:12:30+00:00,30,10800,10800,1.0,0.0,0.14714325400500047,-0.25520787037037035,0.2286628188483643,-0.99,1.645,0.18000000000000002,0.08499999999999996,2.635
mitdb,9_25,9,104,0,,v5,1970-01-01 00:12:30+00:00,1970-01-01 00:13:00+00:00,30,10800,10800,1.0,0.0,0.15140290767663672,-0.264225,0.23073181691155803,-0.955,1.545,0.16999999999999998,0.08000000000000002,2.5
mitdb,9_26,9,104,0,,v5,1970-01-01 00:13:00+00:00,1970-01-01 00:13:30+00:00,30,10800,10800,1.0,0.0,0.15186591351051024,-0.18958935185185186,0.22881554117271324,-0.94,1.73,0.17,0.07999999999999999,2.67
mitdb,9_27,9,104,0,,v5,1970-01-01 00:13:30+00:00,1970-01-01 00:14:00+00:00,30,10800,10800,1.0,0.0,0.1489952773404945,-0.2642328703703704,0.22632898542310886,-0.95,1.48,0.17499999999999996,0.07500000000000001,2.4299999999999997
mitdb,9_28,9,104,0,,v5,1970-01-01 00:14:00+00:00,1970-01-01 00:14:30+00:00,30,10800,10800,1.0,0.0,0.14769886100564866,-0.2682236111111111,0.23101685720268064,-1.035,1.495,0.19499999999999998,0.09500000000000003,2.5300000000000002
mitdb,9_29,9,104,0,,v5,1970-01-01 00:14:30+00:00,1970-01-01 00:15:00+00:00,30,10800,10800,1.0,0.0,0.13862394666172795,-0.2252087962962963,0.23417953587005114,-0.985,1.38,0.19,0.095,2.3649999999999998
mitdb,9_30,9,104,0,,v5,1970-01-01 00:15:00+00:00,1970-01-01 00:15:30+00:00,30,10800,10800,1.0,0.0,0.14843967033984629,-0.21282546296296295,0.24556293173017588,-1.01,1.53,0.195,0.09,2.54
mitdb,9_31,9,104,0,,v5,1970-01-01 00:15:30+00:00,1970-01-01 00:16:00+00:00,30,10800,10800,1.0,0.0,0.15658857301602,-0.2585115740740741,0.2323859739891061,-0.955,1.67,0.16499999999999998,0.07500000000000004,2.625
mitdb,9_32,9,104,0,,v5,1970-01-01 00:16:00+00:00,1970-01-01 00:16:30+00:00,30,10800,10800,1.0,0.0,0.14742105750532455,-0.22154537037037036,0.2274507968024367,-0.97,1.715,0.18,0.08000000000000002,2.685
mitdb,9_33,9,104,0,,v5,1970-01-01 00:16:30+00:00,1970-01-01 00:17:00+00:00,30,10800,10800,1.0,0.0,0.14649504583757755,-0.2166023148148148,0.22868072555914415,-0.91,1.745,0.16499999999999998,0.07500000000000001,2.6550000000000002
mitdb,9_34,9,104,0,,v5,1970-01-01 00:17:00+00:00,1970-01-01 00:17:30+00:00,30,10800,10800,1.0,0.0,0.14529123066950644,-0.2041115740740741,0.22181744110583926,-0.915,1.64,0.17500000000000004,0.07999999999999999,2.5549999999999997
mitdb,9_35,9,104,0,,v5,1970-01-01 00:17:30+00:00,1970-01-01 00:18:00+00:00,30,10800,10800,1.0,0.0,0.14760625983887396,-0.2080574074074074,0.23052368633367748,-0.92,1.73,0.16499999999999998,0.07999999999999999,2.65
mitdb,9_36,9,104,0,,v5,1970-01-01 00:18:00+00:00,1970-01-01 00:18:30+00:00,30,10800,10800,1.0,0.0,0.15408834151310308,-0.22438055555555556,0.23619575496219283,-0.985,1.455,0.185,0.07500000000000001,2.44
mitdb,9_37,9,104,0,,v5,1970-01-01 00:18:30+00:00,1970-01-01 00:19:00+00:00,30,10800,10800,1.0,0.0,0.14723585517177518,-0.22141157407407405,0.22872066067542243,-0.965,1.64,0.195,0.09000000000000002,2.605
mitdb,9_38,9,104,0,,v5,1970-01-01 00:19:00+00:00,1970-01-01 00:19:30+00:00,30,10800,10800,1.0,0.0,0.14825446800629688,-0.2595472222222222,0.2259880069941378,-1.0,1.675,0.18500000000000003,0.08499999999999996,2.675
mitdb,9_39,9,104,0,,v5,1970-01-01 00:19:30+00:00,1970-01-01 00:20:00+00:00,30,10800,10800,1.0,0.0,0.1511251041763126,-0.20754398148148148,0.2306366234370648,-0.92,1.66,0.175,0.08499999999999999,2.58
mitdb,9_40,9,104,0,,v5,1970-01-01 00:20:00+00:00,1970-01-01 00:20:30+00:00,30,10800,10800,1.0,0.0,0.1500138901750162,-0.20133333333333334,0.22229812241072947,-0.945,1.71,0.17625000000000002,0.08499999999999999,2.655
mitdb,9_41,9,104,0,,v5,1970-01-01 00:20:30+00:00,1970-01-01 00:21:00+00:00,30,10800,10800,1.0,0.0,0.14797666450597277,-0.20917407407407407,0.22190172856592233,-0.92,1.49,0.16000000000000003,0.07499999999999998,2.41
mitdb,9_42,9,104,0,,v5,1970-01-01 00:21:00+00:00,1970-01-01 00:21:30+00:00,30,10800,10800,1.0,0.0,0.14751365867209926,-0.20086481481481483,0.23184567924803567,-0.95,1.52,0.18999999999999997,0.07999999999999999,2.4699999999999998
mitdb,9_43,9,104,0,,v5,1970-01-01 00:21:30+00:00,1970-01-01 00:22:00+00:00,30,10800,10800,1.0,0.0,0.15473654968052597,-0.19498379629629628,0.2263072389496093,-0.985,1.465,0.16000000000000003,0.08000000000000002,2.45
mitdb,9_44,9,104,0,,v5,1970-01-01 00:22:00+00:00,1970-01-01 00:22:30+00:00,30,10800,10800,1.0,0.0,0.1554773590147236,-0.22356805555555553,0.2249606523772306,-0.99,1.68,0.185,0.08000000000000002,2.67
mitdb,9_45,9,104,0,,v5,1970-01-01 00:22:30+00:00,1970-01-01 00:23:00+00:00,30,10800,10800,1.0,0.0,0.15186591351051024,-0.25499814814814814,0.2283527657887884,-1.005,1.605,0.17,0.07999999999999996,2.61
mitdb,9_46,9,104,0,,v5,1970-01-01 00:23:00+00:00,1970-01-01 00:23:30+00:00,30,10800,10800,1.0,0.0,0.14436521900175942,-0.23969907407407406,0.22485885150752208,-0.985,1.745,0.17500000000000002,0.07500000000000001,2.73
mitdb,9_47,9,104,0,,v5,1970-01-01 00:23:30+00:00,1970-01-01 00:24:00+00:00,30,10800,10800,1.0,0.0,0.15056949717566442,-0.2477805555555556,0.22952805506015322,-1.005,1.695,0.18500000000000003,0.09,2.7
mitdb,9_48,9,104,0,,v5,1970-01-01 00:24:00+00:00,1970-01-01 00:24:30+00:00,30,10800,10800,1.0,0.0,0.15445874618020186,-0.2308060185185185,0.21884930626897608,-0.935,1.5,0.165,0.07500000000000001,2.435
mitdb,9_49,9,104,0,,v5,1970-01-01 00:24:30+00:00,1970-01-01 00:25:00+00:00,30,10800,10800,1.0,0.0,0.14140198166496898,-0.2266125,0.22459741500098057,-1.045,1.655,0.175,0.08500000000000002,2.7
mitdb,9_50,9,104,0,,v5,1970-01-01 00:25:00+00:00,1970-01-01 00:25:30+00:00,30,10800,10800,1.0,0.0,0.14769886100564866,-0.1890162037037037,0.22845790705163127,-0.92,1.73,0.18000000000000002,0.08999999999999997,2.65
mitdb,9_51,9,104,0,,v5,1970-01-01 00:25:30+00:00,1970-01-01 00:26:00+00:00,30,10800,10800,1.0,0.0,0.15297712751180664,-0.2621907407407407,0.23674186281602297,-0.98,1.63,0.215,0.09500000000000003,2.61
mitdb,9_52,9,104,0,,v5,1970-01-01 00:26:00+00:00,1970-01-01 00:26:30+00:00,30,10800,10800,1.0,0.0,0.1497360866746921,-0.2293611111111111,0.23516037515576238,-1.085,1.725,0.19,0.09000000000000002,2.81
mitdb,9_53,9,104,0,,v5,1970-01-01 00:26:30+00:00,1970-01-01 00:27:00+00:00,30,10800,10800,1.0,0.0,0.1566811741827947,-0.2583597222222222,0.23130357614077082,-1.085,1.59,0.17999999999999997,0.09,2.675
mitdb,9_54,9,104,0,,v5,1970-01-01 00:27:00+00:00,1970-01-01 00:27:30+00:00,30,10800,10800,1.0,0.0,0.15492175201407538,-0.20276342592592592,0.23346524179644187,-0.985,1.82,0.2,0.1,2.805
mitdb,9_55,9,104,0,,v5,1970-01-01 00:27:30+00:00,1970-01-01 00:28:00+00:00,30,10800,10800,1.0,0.0,0.15844059635151403,-0.20221342592592595,0.2347970839311686,-1.08,1.655,0.2,0.1,2.7350000000000003
mitdb,9_56,9,104,0,,v5,1970-01-01 00:28:00+00:00,1970-01-01 00:28:30+00:00,30,10800,10800,1.0,0.0,0.14575423650337993,-0.16510740740740742,0.23210455177896713,-0.965,1.805,0.175,0.08500000000000002,2.77
mitdb,9_57,9,104,0,,v5,1970-01-01 00:28:30+00:00,1970-01-01 00:29:00+00:00,30,10800,10800,1.0,0.0,0.15168071117696083,-0.2361425925925926,0.228089706873518,-1.005,1.675,0.19,0.09000000000000002,2.6799999999999997
mitdb,9_58,9,104,0,,v5,1970-01-01 00:29:00+00:00,1970-01-01 00:29:30+00:00,30,10800,10800,1.0,0.0,0.1419575886656172,-0.20528935185185185,0.23194003993640805,-0.97,1.57,0.2,0.09999999999999999,2.54
mitdb,9_59,9,104,0,,v5,1970-01-01 00:29:30+00:00,1970-01-01 00:30:00+00:00,30,10800,10800,1.0,0.0,0.14371701083433652,-0.22663472222222225,0.23847094558081677,-1.0,1.84,0.2,0.09999999999999998,2.84
mitdb,9_60,9,104,0,,v5,1970-01-01 00:30:00+00:00,1970-01-01 00:30:30+00:00,30,10800,2000,0.18518518518518517,0.8148148148148148,0.15457728864432216,-0.25136000000000003,0.20716106838430587,-0.92,0.87,0.17500000000000002,0.07,1.79
mitdb,10_0,10,104,0,,v2,1970-01-01 00:00:00+00:00,1970-01-01 00:00:30+00:00,30,10800,10800,1.0,0.0,0.12751180664876377,0.019297685185185185,0.2506301157965132,-0.935,1.105,0.25,0.125,2.04
mitdb,10_1,10,104,0,,v2,1970-01-01 00:00:30+00:00,1970-01-01 00:01:00+00:00,30,10800,10800,1.0,0.0,0.12695619964811555,0.01481064814814815,0.24006884059455857,-0.945,1.165,0.255,0.13,2.11
mitdb,10_2,10,104,0,,v2,1970-01-01 00:01:00+00:00,1970-01-01 00:01:30+00:00,30,10800,10800,1.0,0.0,0.11408463746643208,0.038243518518518524,0.26444024708221864,-1.01,1.18,0.28,0.14,2.19
mitdb,10_3,10,104,0,,v2,1970-01-01 00:01:30+00:00,1970-01-01 00:02:00+00:00,30,10800,10800,1.0,0.0,0.0823224372627095,0.07039351851851852,0.26290403580829763,-1.16,1.48,0.25,0.125,2.6399999999999997
mitdb,10_4,10,104,0,,v2,1970-01-01 00:02:00+00:00,1970-01-01 00:02:30+00:00,30,10800,10800,1.0,0.0,0.0755625520881563,0.048209722222222216,0.3020043792030149,-1.3,1.22,0.28,0.14,2.52
mitdb,10_5,10,104,0,,v2,1970-01-01 00:02:30+00:00,1970-01-01 00:03:00+00:00,30,10800,10800,1.0,0.0,0.09778683211408463,0.05891111111111111,0.2862151505195864,-1.175,1.3,0.24,0.11999999999999998,2.475
mitdb,10_6,10,104,0,,v2,1970-01-01 00:03:00+00:00,1970-01-01 00:03:30+00:00,30,10800,10800,1.0,0.0,0.09667561811278823,0.06448194444444444,0.2665156442263519,-1.77,1.365,0.22999999999999998,0.115,3.135
mitdb,10_7,10,104,0,,v2,1970-01-01 00:03:30+00:00,1970-01-01 00:04:00+00:00,30,10800,10800,1.0,0.0,0.12445596814519863,0.048543518518518514,0.2061922769509111,-0.925,1.41,0.225,0.10500000000000001,2.335
mitdb,10_8,10,104,0,,v2,1970-01-01 00:04:00+00:00,1970-01-01 00:04:30+00:00,30,10800,10800,1.0,0.0,0.10862116862672469,0.08836435185185186,0.20963821999630008,-0.985,1.125,0.16499999999999998,0.08,2.11
mitdb,10_9,10,104,0,,v2,1970-01-01 00:04:30+00:00,1970-01-01 00:05:00+00:00,30,10800,10800,1.0,0.0,0.10667654412445597,0.06246111111111111,0.24028948064650743,-1.22,1.01,0.265,0.135,2.23
mitdb,10_10,10,104,0,,v2,1970-01-01 00:05:00+00:00,1970-01-01 00:05:30+00:00,30,10800,10800,1.0,0.0,0.07778498009074915,0.04554351851851852,0.2800647239670361,-1.375,1.225,0.29000000000000004,0.145,2.6
mitdb,10_11,10,104,0,,v2,1970-01-01 00:05:30+00:00,1970-01-01 00:06:00+00:00,30,10800,10800,1.0,0.0,0.12982683581813131,0.07430138888888889,0.2353498761779582,-0.92,1.055,0.22999999999999998,0.11499999999999999,1.975
mitdb,10_12,10,104,0,,v2,1970-01-01 00:06:00+00:00,1970-01-01 00:06:30+00:00,30,10800,10800,1.0,0.0,0.09676821927956292,0.10956990740740741,0.27368292000060246,-0.81,1.49,0.245,0.115,2.3
mitdb,10_13,10,104,0,,v2,1970-01-01 00:06:30+00:00,1970-01-01 00:07:00+00:00,30,10800,10800,1.0,0.0,0.14843967033984629,0.07090462962962962,0.16776520103649198,-0.815,1.075,0.14,0.07,1.89
mitdb,10_14,10,104,0,,v2,1970-01-01 00:07:00+00:00,1970-01-01 00:07:30+00:00,30,10800,10800,1.0,0.0,0.13843874432817854,0.06650879629629629,0.17536048597959444,-0.87,1.275,0.14500000000000002,0.07,2.145
mitdb,10_15,10,104,0,,v2,1970-01-01 00:07:30+00:00,1970-01-01 00:08:00+00:00,30,10800,10800,1.0,0.0,0.14242059449949068,0.07279305555555556,0.18542378999077394,-0.8,1.11,0.155,0.075,1.9100000000000001
mitdb,10_16,10,104,0,,v2,1970-01-01 00:08:00+00:00,1970-01-01 00:08:30+00:00,30,10800,10800,1.0,0.0,0.14251319566626539,0.028169907407407407,0.20271058889980914,-0.815,1.065,0.195,0.09500000000000001,1.88
mitdb,10_17,10,104,0,,v2,1970-01-01 00:08:30+00:00,1970-01-01 00:09:00+00:00,30,10800,10800,1.0,0.0,0.14066117233077136,0.09055509259259259,0.21144723033820254,-0.84,1.51,0.2,0.09999999999999999,2.35
mitdb,10_18,10,104,0,,v2,1970-01-01 00:09:00+00:00,1970-01-01 00:09:30+00:00,30,10800,10800,1.0,0.0,0.14140198166496898,0.08554675925925925,0.1799435034925372,-0.74,1.185,0.14,0.07,1.925
mitdb,10_19,10,104,0,,v2,1970-01-01 00:09:30+00:00,1970-01-01 00:10:00+00:00,30,10800,10800,1.0,0.0,0.15269932401148253,0.05479166666666667,0.1789861409099514,-0.81,1.03,0.165,0.08499999999999999,1.84
mitdb,10_20,10,104,0,,v2,1970-01-01 00:10:00+00:00,1970-01-01 00:10:30+00:00,30,10800,10800,1.0,0.0,0.1431614038336883,0.0691537037037037,0.18687056955273776,-0.75,1.03,0.16,0.08,1.78
mitdb,10_21,10,104,0,,v2,1970-01-01 00:10:30+00:00,1970-01-01 00:11:00+00:00,30,10800,10800,1.0,0.0,0.14742105750532455,0.06723842592592592,0.17394644993893896,-0.705,1.185,0.13,0.065,1.8900000000000001
mitdb,10_22,10,104,0,,v2,1970-01-01 00:11:00+00:00,1970-01-01 00:11:30+00:00,30,10800,10800,1.0,0.0,0.1433466061672377,0.11779166666666667,0.1811366482682768,-0.71,1.155,0.13,0.065,1.865
mitdb,10_23,10,104,0,,v2,1970-01-01 00:11:30+00:00,1970-01-01 00:12:00+00:00,30,10800,10800,1.0,0.0,0.14705065283822577,0.1183962962962963,0.16691404811595315,-0.7,1.145,0.10999999999999999,0.05,1.845
mitdb,10_24,10,104,0,,v2,1970-01-01 00:12:00+00:00,1970-01-01 00:12:30+00:00,30,10800,10800,1.0,0.0,0.13871654782850265,0.08615138888888889,0.18525253684012344,-0.735,1.17,0.125,0.060000000000000005,1.9049999999999998
mitdb,10_25,10,104,0,,v2,1970-01-01 00:12:30+00:00,1970-01-01 00:13:00+00:00,30,10800,10800,1.0,0.0,0.1488100750069451,0.03529814814814815,0.17625326505418176,-0.755,1.0,0.16,0.07500000000000001,1.755
mitdb,10_26,10,104,0,,v2,1970-01-01 00:13:00+00:00,1970-01-01 00:13:30+00:00,30,10800,10800,1.0,0.0,0.14492082600240763,0.1112462962962963,0.18464666439067864,-0.715,1.175,0.125,0.06000000000000001,1.8900000000000001
mitdb,10_27,10,104,0,,v2,1970-01-01 00:13:30+00:00,1970-01-01 00:14:00+00:00,30,10800,10800,1.0,0.0,0.1489026761737198,0.06811574074074074,0.17088621333929482,-0.68,1.13,0.12000000000000001,0.06,1.81
mitdb,10_28,10,104,0,,v2,1970-01-01 00:14:00+00:00,1970-01-01 00:14:30+00:00,30,10800,10800,1.0,0.0,0.13954995832947495,0.0582625,0.18813389518161067,-0.775,1.095,0.135,0.065,1.87
mitdb,10_29,10,104,0,,v2,1970-01-01 00:14:30+00:00,1970-01-01 00:15:00+00:00,30,10800,10800,1.0,0.0,0.1496434855079174,0.07252592592592592,0.17350189337416694,-0.735,1.085,0.13,0.06000000000000001,1.8199999999999998
mitdb,10_30,10,104,0,,v2,1970-01-01 00:15:00+00:00,1970-01-01 00:15:30+00:00,30,10800,10800,1.0,0.0,0.13677192332623392,0.09865787037037038,0.19691751829881937,-0.715,1.14,0.145,0.07499999999999998,1.855
mitdb,10_31,10,104,0,,v2,1970-01-01 00:15:30+00:00,1970-01-01 00:16:00+00:00,30,10800,10800,1.0,0.0,0.13862394666172795,0.07590046296296296,0.17051034284223368,-0.73,1.105,0.13,0.06499999999999999,1.835
mitdb,10_32,10,104,0,,v2,1970-01-01 00:16:00+00:00,1970-01-01 00:16:30+00:00,30,10800,10800,1.0,0.0,0.14436521900175942,0.03633611111111111,0.1862063254068135,-0.81,1.15,0.125,0.060000000000000005,1.96
mitdb,10_33,10,104,0,,v2,1970-01-01 00:16:30+00:00,1970-01-01 00:17:00+00:00,30,10800,10800,1.0,0.0,0.1557551625150477,0.05504351851851852,0.16667128017557217,-0.715,1.14,0.11499999999999999,0.06,1.855
